333.051300	0.000000
333.235016	0.000000
333.418732	0.000000
333.602448	0.000000
333.786163	0.000000
333.969879	0.000000
334.153625	0.000000
334.337372	0.000000
334.521088	0.000000
334.704834	0.000000
334.888550	0.000000
335.072327	0.000000
335.256073	0.000000
335.439819	0.000000
335.623596	0.000000
335.807343	0.000000
335.991119	0.000000
336.174866	0.000000
336.358643	0.000000
336.542419	0.000000
336.726196	0.000000
336.909973	0.000000
337.093750	0.000000
337.277527	0.000000
337.461304	0.000000
337.645111	0.000000
337.828918	0.000000
338.012726	0.000000
338.196533	0.000000
338.380341	0.000000
338.564117	0.000000
338.747925	0.000000
338.931763	0.000000
339.115570	0.000000
339.299408	0.000000
339.483215	0.000000
339.667023	0.000000
339.850861	0.000000
340.034698	0.000000
340.218536	0.000000
340.402405	0.000000
340.586243	0.000000
340.770111	0.000000
340.953918	0.000000
341.137787	0.000000
341.321655	0.000000
341.505524	0.000000
341.689392	0.000000
341.873260	0.000000
342.057098	0.000000
342.240967	0.000000
342.424866	0.000000
342.608734	0.000000
342.792633	0.000000
342.976532	0.000000
343.160431	0.000000
343.344299	0.000000
343.528198	0.000000
343.712097	0.000000
343.895996	0.000000
344.079926	0.000000
344.263824	0.000000
344.447723	0.000000
344.631653	0.000000
344.815552	0.000000
344.999481	0.000000
345.183411	0.000000
345.367371	0.000000
345.551300	0.000000
345.735199	0.000000
345.919159	0.000000
346.103088	0.000000
346.287048	0.000000
346.471008	0.000000
346.654968	0.000000
346.838898	0.000000
347.022858	0.000000
347.206818	0.000000
347.390778	0.000000
347.574768	0.000000
347.758728	0.000000
347.942719	0.000000
348.126678	0.000000
348.310669	0.000000
348.494659	0.000000
348.678650	0.000000
348.862640	0.000000
349.046631	0.000000
349.230591	0.000000
349.414612	0.000000
349.598602	0.000000
349.782623	0.000000
349.966644	236.000000
350.150665	284.000000
350.334686	288.000000
350.518677	258.000000
350.702698	247.000000
350.886749	274.000000
351.070770	277.000000
351.254822	244.000000
351.438843	242.000000
351.622864	286.000000
351.806915	270.000000
351.990967	259.000000
352.175018	254.000000
352.359070	284.000000
352.543121	284.000000
352.727203	241.000000
352.911224	273.000000
353.095306	290.000000
353.279358	262.000000
353.463440	246.000000
353.647522	242.000000
353.831604	286.000000
354.015656	271.000000
354.199738	246.000000
354.383850	240.000000
354.567932	290.000000
354.752045	290.000000
354.936127	249.000000
355.120239	254.000000
355.304321	292.000000
355.488434	288.000000
355.672546	252.000000
355.856659	253.000000
356.040771	281.000000
356.224915	285.000000
356.408997	246.000000
356.593140	248.000000
356.777252	296.000000
356.961395	281.000000
357.145538	248.000000
357.329681	258.000000
357.513824	271.000000
357.697937	278.000000
357.882111	245.000000
358.066254	252.000000
358.250397	284.000000
358.434570	280.000000
358.618744	256.000000
358.802887	255.000000
358.987061	273.000000
359.171234	288.000000
359.355408	262.000000
359.539581	253.000000
359.723755	289.000000
359.907959	288.000000
360.092102	254.000000
360.276306	245.000000
360.460510	282.000000
360.644684	281.000000
360.828888	253.000000
361.013092	255.000000
361.197296	308.000000
361.381500	302.000000
361.565704	245.000000
361.749939	236.000000
361.934143	282.000000
362.118378	281.000000
362.302612	249.000000
362.486786	232.000000
362.671021	285.000000
362.855255	294.000000
363.039520	239.000000
363.223755	244.000000
363.407990	276.000000
363.592224	275.000000
363.776459	259.000000
363.960724	266.000000
364.144989	307.000000
364.329254	309.000000
364.513519	294.000000
364.697784	273.000000
364.882019	315.000000
365.066284	303.000000
365.250580	266.000000
365.434845	266.000000
365.619141	283.000000
365.803436	288.000000
365.987701	252.000000
366.171967	247.000000
366.356262	281.000000
366.540558	289.000000
366.724884	249.000000
366.909180	253.000000
367.093445	296.000000
367.277771	293.000000
367.462097	239.000000
367.646393	261.000000
367.830719	284.000000
368.015045	274.000000
368.199371	255.000000
368.383698	243.000000
368.567993	284.000000
368.752350	269.000000
368.936676	233.000000
369.121033	249.000000
369.305359	290.000000
369.489685	294.000000
369.674042	255.000000
369.858398	269.000000
370.042755	289.000000
370.227112	262.000000
370.411469	244.000000
370.595856	248.000000
370.780212	283.000000
370.964569	306.000000
371.148926	262.000000
371.333313	250.000000
371.517700	282.000000
371.702087	270.000000
371.886444	254.000000
372.070831	254.000000
372.255219	268.000000
372.439636	294.000000
372.624023	252.000000
372.808441	263.000000
372.992828	287.000000
373.177246	288.000000
373.361633	247.000000
373.546051	252.000000
373.730469	290.000000
373.914886	278.000000
374.099304	253.000000
374.283722	247.000000
374.468140	287.000000
374.652588	273.000000
374.837006	248.000000
375.021454	252.000000
375.205902	285.000000
375.390350	282.000000
375.574799	271.000000
375.759216	238.000000
375.943665	276.000000
376.128143	291.000000
376.312592	272.000000
376.497070	268.000000
376.681488	299.000000
376.865967	284.000000
377.050446	250.000000
377.234924	249.000000
377.419403	283.000000
377.603882	307.000000
377.788361	257.000000
377.972870	250.000000
378.157318	282.000000
378.341827	279.000000
378.526306	264.000000
378.710815	256.000000
378.895325	304.000000
379.079803	283.000000
379.264313	270.000000
379.448822	273.000000
379.633331	306.000000
379.817841	296.000000
380.002380	260.000000
380.186890	254.000000
380.371429	305.000000
380.555939	274.000000
380.740479	253.000000
380.924988	259.000000
381.109528	297.000000
381.294098	291.000000
381.478607	250.000000
381.663147	258.000000
381.847717	296.000000
382.032257	303.000000
382.216827	255.000000
382.401367	258.000000
382.585937	313.000000
382.770508	294.000000
382.955048	275.000000
383.139618	262.000000
383.324188	291.000000
383.508789	290.000000
383.693359	273.000000
383.877930	271.000000
384.062500	307.000000
384.247101	303.000000
384.431702	285.000000
384.616302	265.000000
384.800903	311.000000
384.985504	323.000000
385.170105	254.000000
385.354675	261.000000
385.539276	307.000000
385.723907	304.000000
385.908508	277.000000
386.093140	267.000000
386.277740	324.000000
386.462372	308.000000
386.647003	268.000000
386.831635	270.000000
387.016266	309.000000
387.200897	304.000000
387.385559	271.000000
387.570190	286.000000
387.754791	303.000000
387.939453	311.000000
388.124115	264.000000
388.308777	296.000000
388.493439	336.000000
388.678070	321.000000
388.862732	285.000000
389.047394	263.000000
389.232056	312.000000
389.416748	311.000000
389.601410	274.000000
389.786102	280.000000
389.970795	314.000000
390.155426	306.000000
390.340118	286.000000
390.524811	276.000000
390.709503	310.000000
390.894196	326.000000
391.078888	267.000000
391.263580	268.000000
391.448303	328.000000
391.632996	307.000000
391.817719	274.000000
392.002441	297.000000
392.187134	327.000000
392.371857	308.000000
392.556549	290.000000
392.741302	282.000000
392.926025	337.000000
393.110748	310.000000
393.295502	275.000000
393.480194	279.000000
393.664948	322.000000
393.849670	341.000000
394.034424	291.000000
394.219177	299.000000
394.403931	316.000000
394.588684	317.000000
394.773468	276.000000
394.958191	286.000000
395.142944	309.000000
395.327728	310.000000
395.512482	312.000000
395.697266	268.000000
395.882019	327.000000
396.066803	336.000000
396.251587	294.000000
396.436371	293.000000
396.621155	322.000000
396.805939	323.000000
396.990723	301.000000
397.175537	320.000000
397.360291	319.000000
397.545105	335.000000
397.729919	284.000000
397.914703	289.000000
398.099518	330.000000
398.284302	319.000000
398.469116	295.000000
398.653961	309.000000
398.838776	338.000000
399.023590	345.000000
399.208435	301.000000
399.393250	292.000000
399.578094	361.000000
399.762909	347.000000
399.947754	321.000000
400.132599	294.000000
400.317444	351.000000
400.502289	345.000000
400.687103	306.000000
400.871948	316.000000
401.056824	325.000000
401.241669	355.000000
401.426544	314.000000
401.611420	305.000000
401.796265	362.000000
401.981140	344.000000
402.165985	322.000000
402.350861	314.000000
402.535767	368.000000
402.720642	365.000000
402.905518	353.000000
403.090393	377.000000
403.275269	479.000000
403.460175	598.000000
403.645081	746.000000
403.829956	1026.000000
404.014862	1391.000000
404.199768	1490.000000
404.384674	1324.000000
404.569580	1117.000000
404.754486	922.000000
404.939392	667.000000
405.124329	400.000000
405.309235	346.000000
405.494141	376.000000
405.679077	370.000000
405.864014	323.000000
406.048950	326.000000
406.233887	380.000000
406.418823	365.000000
406.603760	348.000000
406.788696	354.000000
406.973633	404.000000
407.158569	439.000000
407.343536	411.000000
407.528473	397.000000
407.713440	431.000000
407.898376	395.000000
408.083344	356.000000
408.268311	308.000000
408.453278	366.000000
408.638275	368.000000
408.823242	306.000000
409.008209	333.000000
409.193207	362.000000
409.378143	347.000000
409.563141	320.000000
409.748138	324.000000
409.933136	364.000000
410.118134	360.000000
410.303101	337.000000
410.488098	319.000000
410.673096	374.000000
410.858124	373.000000
411.043121	333.000000
411.228149	319.000000
411.413147	381.000000
411.598175	360.000000
411.783173	326.000000
411.968201	343.000000
412.153229	372.000000
412.338257	370.000000
412.523285	320.000000
412.708282	313.000000
412.893341	385.000000
413.078369	374.000000
413.263428	318.000000
413.448456	323.000000
413.633514	388.000000
413.818573	362.000000
414.003632	314.000000
414.188660	324.000000
414.373718	382.000000
414.558777	374.000000
414.743835	324.000000
414.928925	361.000000
415.113953	398.000000
415.299042	389.000000
415.484100	333.000000
415.669189	325.000000
415.854279	387.000000
416.039368	378.000000
416.224457	319.000000
416.409546	335.000000
416.594604	380.000000
416.779694	381.000000
416.964813	336.000000
417.149902	327.000000
417.335022	396.000000
417.520081	399.000000
417.705200	346.000000
417.890320	347.000000
418.075439	387.000000
418.260559	405.000000
418.445679	343.000000
418.630798	349.000000
418.815918	384.000000
419.001038	378.000000
419.186157	347.000000
419.371307	344.000000
419.556427	391.000000
419.741577	396.000000
419.926697	336.000000
420.111847	348.000000
420.296997	405.000000
420.482147	383.000000
420.667297	334.000000
420.852448	334.000000
421.037628	405.000000
421.222778	395.000000
421.407928	341.000000
421.593079	348.000000
421.778259	414.000000
421.963440	407.000000
422.148621	352.000000
422.333771	349.000000
422.518951	430.000000
422.704132	398.000000
422.889313	369.000000
423.074493	340.000000
423.259705	398.000000
423.444885	389.000000
423.630096	381.000000
423.815277	354.000000
424.000458	427.000000
424.185669	425.000000
424.370880	346.000000
424.556091	356.000000
424.741272	407.000000
424.926514	415.000000
425.111725	361.000000
425.296936	363.000000
425.482178	433.000000
425.667389	401.000000
425.852631	364.000000
426.037872	357.000000
426.223083	416.000000
426.408325	412.000000
426.593567	362.000000
426.778809	379.000000
426.964050	419.000000
427.149261	412.000000
427.334534	381.000000
427.519775	384.000000
427.705048	425.000000
427.890289	432.000000
428.075562	415.000000
428.260834	390.000000
428.446106	412.000000
428.631348	442.000000
428.816620	383.000000
429.001892	382.000000
429.187164	429.000000
429.372467	432.000000
429.557709	378.000000
429.743011	387.000000
429.928284	454.000000
430.113586	432.000000
430.298889	399.000000
430.484161	385.000000
430.669464	433.000000
430.854767	446.000000
431.040070	395.000000
431.225372	384.000000
431.410675	446.000000
431.596008	434.000000
431.781311	412.000000
431.966614	401.000000
432.151917	472.000000
432.337250	448.000000
432.522583	416.000000
432.707916	434.000000
432.893250	489.000000
433.078583	503.000000
433.263916	432.000000
433.449219	453.000000
433.634583	538.000000
433.819916	525.000000
434.005280	514.000000
434.190613	548.000000
434.375946	675.000000
434.561310	911.000000
434.746674	1379.000000
434.932037	2235.000000
435.117401	3550.000000
435.302765	3774.000000
435.488129	3788.000000
435.673492	3801.000000
435.858856	3763.000000
436.044220	3056.000000
436.229614	973.000000
436.415009	538.000000
436.600372	585.000000
436.785736	525.000000
436.971130	466.000000
437.156525	456.000000
437.341919	495.000000
437.527313	492.000000
437.712738	458.000000
437.898132	425.000000
438.083527	474.000000
438.268921	473.000000
438.454346	477.000000
438.639740	428.000000
438.825165	493.000000
439.010590	483.000000
439.195984	418.000000
439.381409	419.000000
439.566833	469.000000
439.752258	473.000000
439.937683	434.000000
440.123138	420.000000
440.308563	486.000000
440.494019	483.000000
440.679413	421.000000
440.864868	423.000000
441.050323	495.000000
441.235779	487.000000
441.421234	444.000000
441.606659	432.000000
441.792114	518.000000
441.977570	481.000000
442.163055	422.000000
442.348511	420.000000
442.533997	468.000000
442.719452	475.000000
442.904938	416.000000
443.090393	436.000000
443.275848	479.000000
443.461334	470.000000
443.646820	428.000000
443.832306	426.000000
444.017792	485.000000
444.203278	481.000000
444.388763	426.000000
444.574280	465.000000
444.759766	537.000000
444.945282	507.000000
445.130768	453.000000
445.316284	430.000000
445.501770	524.000000
445.687286	489.000000
445.872803	418.000000
446.058319	456.000000
446.243835	502.000000
446.429321	498.000000
446.614868	441.000000
446.800385	437.000000
446.985931	497.000000
447.171448	494.000000
447.356995	430.000000
447.542542	440.000000
447.728088	484.000000
447.913605	487.000000
448.099152	440.000000
448.284698	451.000000
448.470245	510.000000
448.655792	506.000000
448.841339	448.000000
449.026886	440.000000
449.212463	502.000000
449.398010	514.000000
449.583588	452.000000
449.769165	444.000000
449.954712	514.000000
450.140289	497.000000
450.325836	444.000000
450.511444	451.000000
450.697021	488.000000
450.882599	518.000000
451.068176	448.000000
451.253754	452.000000
451.439331	503.000000
451.624939	522.000000
451.810547	461.000000
451.996124	442.000000
452.181732	519.000000
452.367340	488.000000
452.552948	443.000000
452.738525	454.000000
452.924164	497.000000
453.109772	512.000000
453.295380	474.000000
453.481018	442.000000
453.666595	508.000000
453.852234	500.000000
454.037842	449.000000
454.223480	468.000000
454.409119	521.000000
454.594757	504.000000
454.780396	467.000000
454.966034	471.000000
455.151642	500.000000
455.337311	520.000000
455.522949	466.000000
455.708588	440.000000
455.894257	528.000000
456.079865	506.000000
456.265533	468.000000
456.451202	459.000000
456.636871	529.000000
456.822540	493.000000
457.008209	460.000000
457.193878	457.000000
457.379547	502.000000
457.565186	505.000000
457.750854	454.000000
457.936554	460.000000
458.122223	521.000000
458.307922	519.000000
458.493591	450.000000
458.679260	459.000000
458.864960	532.000000
459.050659	514.000000
459.236359	470.000000
459.422058	474.000000
459.607758	535.000000
459.793457	535.000000
459.979156	461.000000
460.164856	458.000000
460.350586	525.000000
460.536285	520.000000
460.722015	472.000000
460.907715	475.000000
461.093414	514.000000
461.279144	527.000000
461.464874	472.000000
461.650604	468.000000
461.836334	519.000000
462.022064	546.000000
462.207825	474.000000
462.393555	464.000000
462.579285	551.000000
462.765015	550.000000
462.950775	469.000000
463.136475	478.000000
463.322235	541.000000
463.507996	532.000000
463.693756	488.000000
463.879517	474.000000
464.065277	549.000000
464.251038	542.000000
464.436798	490.000000
464.622589	486.000000
464.808350	548.000000
464.994110	545.000000
465.179871	498.000000
465.365662	503.000000
465.551422	555.000000
465.737183	537.000000
465.922974	471.000000
466.108765	473.000000
466.294556	548.000000
466.480347	533.000000
466.666168	477.000000
466.851959	494.000000
467.037750	539.000000
467.223572	550.000000
467.409332	498.000000
467.595154	481.000000
467.780975	560.000000
467.966736	530.000000
468.152557	490.000000
468.338379	491.000000
468.524200	554.000000
468.710022	544.000000
468.895844	485.000000
469.081696	504.000000
469.267517	545.000000
469.453339	550.000000
469.639191	502.000000
469.824982	500.000000
470.010834	556.000000
470.196686	554.000000
470.382507	534.000000
470.568329	522.000000
470.754181	557.000000
470.940033	558.000000
471.125916	496.000000
471.311768	540.000000
471.497620	571.000000
471.683472	570.000000
471.869354	519.000000
472.055206	532.000000
472.241058	548.000000
472.426910	540.000000
472.612793	530.000000
472.798645	505.000000
472.984528	563.000000
473.170410	562.000000
473.356293	498.000000
473.542175	506.000000
473.728058	580.000000
473.913971	546.000000
474.099854	525.000000
474.285736	514.000000
474.471649	564.000000
474.657532	595.000000
474.843414	535.000000
475.029327	529.000000
475.215210	567.000000
475.401123	572.000000
475.587036	509.000000
475.772949	510.000000
475.958862	559.000000
476.144775	556.000000
476.330719	510.000000
476.516632	507.000000
476.702545	553.000000
476.888489	554.000000
477.074402	517.000000
477.260315	518.000000
477.446259	585.000000
477.632172	563.000000
477.818115	517.000000
478.004059	522.000000
478.190002	603.000000
478.375946	575.000000
478.561890	517.000000
478.747864	510.000000
478.933807	575.000000
479.119751	565.000000
479.305725	519.000000
479.491669	507.000000
479.677612	545.000000
479.863586	584.000000
480.049530	520.000000
480.235504	504.000000
480.421478	574.000000
480.607452	584.000000
480.793427	519.000000
480.979401	527.000000
481.165405	591.000000
481.351379	578.000000
481.537354	529.000000
481.723358	517.000000
481.909332	586.000000
482.095306	582.000000
482.281311	529.000000
482.467285	518.000000
482.653290	568.000000
482.839294	581.000000
483.025299	522.000000
483.211304	532.000000
483.397308	571.000000
483.583344	583.000000
483.769348	524.000000
483.955353	526.000000
484.141388	569.000000
484.327393	582.000000
484.513397	517.000000
484.699432	513.000000
484.885437	596.000000
485.071472	572.000000
485.257507	533.000000
485.443542	519.000000
485.629578	579.000000
485.815613	569.000000
486.001648	525.000000
486.187714	531.000000
486.373749	575.000000
486.559814	575.000000
486.745819	525.000000
486.931885	516.000000
487.117950	578.000000
487.303986	584.000000
487.490051	525.000000
487.676117	518.000000
487.862183	561.000000
488.048248	568.000000
488.234314	511.000000
488.420380	534.000000
488.606445	570.000000
488.792542	579.000000
488.978607	527.000000
489.164673	518.000000
489.350769	576.000000
489.536835	587.000000
489.722900	526.000000
489.908997	526.000000
490.095093	577.000000
490.281189	599.000000
490.467285	528.000000
490.653381	546.000000
490.839508	551.000000
491.025604	571.000000
491.211700	543.000000
491.397827	524.000000
491.583893	584.000000
491.770020	584.000000
491.956146	522.000000
492.142212	531.000000
492.328339	550.000000
492.514465	553.000000
492.700592	524.000000
492.886719	505.000000
493.072845	567.000000
493.258972	548.000000
493.445129	503.000000
493.631256	508.000000
493.817413	599.000000
494.003510	568.000000
494.189667	509.000000
494.375793	524.000000
494.561920	576.000000
494.748077	562.000000
494.934235	502.000000
495.120392	511.000000
495.306549	561.000000
495.492706	584.000000
495.678864	518.000000
495.865021	504.000000
496.051178	574.000000
496.237366	580.000000
496.423492	508.000000
496.609680	525.000000
496.795837	575.000000
496.981995	562.000000
497.168182	505.000000
497.354370	509.000000
497.540558	546.000000
497.726746	550.000000
497.912933	511.000000
498.099121	514.000000
498.285309	565.000000
498.471497	546.000000
498.657715	521.000000
498.843872	498.000000
499.030090	590.000000
499.216278	566.000000
499.402466	496.000000
499.588654	497.000000
499.774872	561.000000
499.961090	559.000000
500.147308	503.000000
500.333527	507.000000
500.519745	572.000000
500.705963	594.000000
500.892181	523.000000
501.078430	502.000000
501.264618	564.000000
501.450836	551.000000
501.637085	506.000000
501.823303	504.000000
502.009521	561.000000
502.195770	593.000000
502.382019	511.000000
502.568268	499.000000
502.754486	567.000000
502.940735	556.000000
503.127014	505.000000
503.313263	506.000000
503.499512	547.000000
503.685730	574.000000
503.872009	512.000000
504.058258	504.000000
504.244507	579.000000
504.430756	542.000000
504.617035	508.000000
504.803314	514.000000
504.989563	561.000000
505.175842	556.000000
505.362122	525.000000
505.548401	505.000000
505.734680	551.000000
505.920959	545.000000
506.107239	507.000000
506.293518	518.000000
506.479797	551.000000
506.666077	565.000000
506.852356	517.000000
507.038666	501.000000
507.224945	578.000000
507.411255	550.000000
507.597565	505.000000
507.783875	504.000000
507.970184	568.000000
508.156494	568.000000
508.342804	498.000000
508.529083	523.000000
508.715393	558.000000
508.901703	562.000000
509.088013	494.000000
509.274323	493.000000
509.460663	545.000000
509.646973	554.000000
509.833313	527.000000
510.019653	513.000000
510.205963	568.000000
510.392303	565.000000
510.578644	532.000000
510.764984	508.000000
510.951294	563.000000
511.137634	583.000000
511.324005	510.000000
511.510315	495.000000
511.696655	589.000000
511.883026	560.000000
512.069397	496.000000
512.255737	510.000000
512.442078	572.000000
512.628479	564.000000
512.814819	498.000000
513.001160	499.000000
513.187561	548.000000
513.373901	563.000000
513.560303	525.000000
513.746643	504.000000
513.932983	562.000000
514.119385	559.000000
514.305725	514.000000
514.492126	513.000000
514.678528	568.000000
514.864868	553.000000
515.051270	510.000000
515.237671	520.000000
515.424072	561.000000
515.610474	565.000000
515.796814	541.000000
515.983215	501.000000
516.169617	559.000000
516.356018	556.000000
516.542419	507.000000
516.728821	526.000000
516.915222	592.000000
517.101624	571.000000
517.288086	514.000000
517.474487	508.000000
517.660889	551.000000
517.847290	560.000000
518.033752	528.000000
518.220154	507.000000
518.406616	580.000000
518.593018	567.000000
518.779358	527.000000
518.965820	524.000000
519.152283	582.000000
519.338684	594.000000
519.525146	529.000000
519.711548	505.000000
519.898010	561.000000
520.084473	593.000000
520.270935	520.000000
520.457336	528.000000
520.643738	590.000000
520.830200	590.000000
521.016663	531.000000
521.203125	532.000000
521.389587	571.000000
521.576050	584.000000
521.762512	533.000000
521.948975	526.000000
522.135437	564.000000
522.321899	584.000000
522.508362	531.000000
522.694885	530.000000
522.881348	601.000000
523.067810	589.000000
523.254272	536.000000
523.440796	532.000000
523.627197	592.000000
523.813721	566.000000
524.000183	531.000000
524.186646	552.000000
524.373169	601.000000
524.559692	606.000000
524.746155	530.000000
524.932678	531.000000
525.119141	583.000000
525.305664	584.000000
525.492126	535.000000
525.678589	556.000000
525.865112	587.000000
526.051636	584.000000
526.238159	540.000000
526.424683	543.000000
526.611206	613.000000
526.797729	602.000000
526.984253	538.000000
527.170776	547.000000
527.357300	601.000000
527.543823	597.000000
527.730347	571.000000
527.916870	555.000000
528.103394	606.000000
528.289917	589.000000
528.476440	561.000000
528.662964	553.000000
528.849487	601.000000
529.036072	610.000000
529.222595	542.000000
529.409119	544.000000
529.595703	623.000000
529.782227	608.000000
529.968811	560.000000
530.155334	570.000000
530.341858	604.000000
530.528381	611.000000
530.714966	548.000000
530.901550	552.000000
531.088074	592.000000
531.274658	631.000000
531.461243	559.000000
531.647827	563.000000
531.834412	629.000000
532.020996	610.000000
532.207520	566.000000
532.394104	570.000000
532.580688	619.000000
532.767273	630.000000
532.953857	593.000000
533.140442	580.000000
533.327026	658.000000
533.513611	625.000000
533.700195	587.000000
533.886780	579.000000
534.073364	645.000000
534.260010	652.000000
534.446594	581.000000
534.633179	594.000000
534.819824	645.000000
535.006409	652.000000
535.192932	590.000000
535.379578	598.000000
535.566162	636.000000
535.752808	646.000000
535.939392	616.000000
536.126038	614.000000
536.312683	645.000000
536.499268	642.000000
536.685913	612.000000
536.872559	608.000000
537.059143	660.000000
537.245789	661.000000
537.432434	607.000000
537.619080	612.000000
537.805725	652.000000
537.992371	655.000000
538.178955	599.000000
538.365601	619.000000
538.552246	664.000000
538.738892	678.000000
538.925537	634.000000
539.112183	628.000000
539.298828	682.000000
539.485474	681.000000
539.672119	634.000000
539.858765	628.000000
540.045410	671.000000
540.232056	690.000000
540.418701	646.000000
540.605408	635.000000
540.792053	700.000000
540.978760	696.000000
541.165405	658.000000
541.352051	665.000000
541.538757	694.000000
541.725464	699.000000
541.912109	658.000000
542.098816	679.000000
542.285461	712.000000
542.472168	728.000000
542.658875	673.000000
542.845581	676.000000
543.032166	743.000000
543.218872	757.000000
543.405579	690.000000
543.592285	716.000000
543.778992	744.000000
543.965698	766.000000
544.152405	736.000000
544.339111	728.000000
544.525818	789.000000
544.712524	839.000000
544.899170	797.000000
545.085876	898.000000
545.272583	1428.000000
545.459290	3456.000000
545.645996	3747.000000
545.832764	3752.000000
546.019470	3794.000000
546.206177	2836.000000
546.392944	2332.000000
546.579651	834.000000
546.766357	819.000000
546.953125	811.000000
547.139832	775.000000
547.326599	751.000000
547.513306	799.000000
547.700073	795.000000
547.886719	729.000000
548.073486	755.000000
548.260254	810.000000
548.446960	794.000000
548.633728	762.000000
548.820496	744.000000
549.007263	828.000000
549.193970	790.000000
549.380737	745.000000
549.567505	743.000000
549.754211	815.000000
549.940979	799.000000
550.127747	746.000000
550.314514	763.000000
550.501282	799.000000
550.688049	795.000000
550.874817	782.000000
551.061584	766.000000
551.248352	836.000000
551.435181	828.000000
551.621948	782.000000
551.808716	770.000000
551.995483	849.000000
552.182312	837.000000
552.369080	788.000000
552.555847	810.000000
552.742615	848.000000
552.929382	821.000000
553.116150	803.000000
553.302979	796.000000
553.489746	844.000000
553.676575	860.000000
553.863403	806.000000
554.050171	807.000000
554.237000	862.000000
554.423767	859.000000
554.610535	806.000000
554.797363	822.000000
554.984192	850.000000
555.170959	871.000000
555.357788	824.000000
555.544617	821.000000
555.731445	895.000000
555.918274	892.000000
556.105103	837.000000
556.291931	823.000000
556.478760	898.000000
556.665588	886.000000
556.852417	836.000000
557.039246	843.000000
557.226074	907.000000
557.412903	900.000000
557.599670	858.000000
557.786560	857.000000
557.973389	902.000000
558.160217	918.000000
558.347046	884.000000
558.533936	880.000000
558.720764	925.000000
558.907654	904.000000
559.094482	904.000000
559.281311	879.000000
559.468140	921.000000
559.654968	925.000000
559.841858	905.000000
560.028687	911.000000
560.215576	929.000000
560.402466	932.000000
560.589294	900.000000
560.776184	900.000000
560.963074	951.000000
561.149963	946.000000
561.336792	905.000000
561.523682	913.000000
561.710571	952.000000
561.897461	979.000000
562.084351	918.000000
562.271240	908.000000
562.458069	967.000000
562.644958	979.000000
562.831848	907.000000
563.018738	921.000000
563.205627	990.000000
563.392517	976.000000
563.579407	949.000000
563.766296	941.000000
563.953186	989.000000
564.140076	995.000000
564.326965	951.000000
564.513855	942.000000
564.700745	996.000000
564.887695	975.000000
565.074585	954.000000
565.261475	958.000000
565.448425	1024.000000
565.635315	1033.000000
565.822266	955.000000
566.009155	970.000000
566.196106	1018.000000
566.382996	1010.000000
566.569946	981.000000
566.756897	990.000000
566.943787	1045.000000
567.130737	1029.000000
567.317627	966.000000
567.504517	1000.000000
567.691467	1016.000000
567.878418	1028.000000
568.065369	987.000000
568.252319	996.000000
568.439270	1029.000000
568.626221	1018.000000
568.813110	992.000000
569.000061	989.000000
569.186951	1026.000000
569.373901	1038.000000
569.560913	1027.000000
569.747864	1009.000000
569.934814	1036.000000
570.121765	1045.000000
570.308716	1017.000000
570.495667	1011.000000
570.682678	1031.000000
570.869629	1055.000000
571.056580	1017.000000
571.243530	1004.000000
571.430542	1045.000000
571.617493	1074.000000
571.804504	1008.000000
571.991455	1006.000000
572.178345	1068.000000
572.365356	1099.000000
572.552307	1002.000000
572.739319	1027.000000
572.926331	1052.000000
573.113281	1072.000000
573.300293	1037.000000
573.487244	1009.000000
573.674255	1069.000000
573.861267	1062.000000
574.048218	1009.000000
574.235168	1014.000000
574.422180	1074.000000
574.609192	1087.000000
574.796204	1020.000000
574.983215	1021.000000
575.170227	1094.000000
575.357239	1075.000000
575.544250	1027.000000
575.731262	1056.000000
575.918274	1090.000000
576.105286	1115.000000
576.292297	1289.000000
576.479309	1913.000000
576.666321	1955.000000
576.853333	1536.000000
577.040283	1158.000000
577.227356	1068.000000
577.414368	1102.000000
577.601379	1109.000000
577.788391	1032.000000
577.975464	1043.000000
578.162476	1095.000000
578.349548	1285.000000
578.536560	1747.000000
578.723572	1913.000000
578.910583	1580.000000
579.097595	1239.000000
579.284668	1054.000000
579.471741	1037.000000
579.658752	1081.000000
579.845825	1082.000000
580.032837	1024.000000
580.219910	1022.000000
580.406982	1090.000000
580.593994	1061.000000
580.781067	1046.000000
580.968140	1044.000000
581.155212	1075.000000
581.342285	1070.000000
581.529297	995.000000
581.716370	1025.000000
581.903381	1084.000000
582.090454	1070.000000
582.277527	1027.000000
582.464600	1005.000000
582.651672	1063.000000
582.838745	1062.000000
583.025818	1028.000000
583.212891	1005.000000
583.400024	1074.000000
583.587097	1068.000000
583.774109	1047.000000
583.961182	1040.000000
584.148254	1053.000000
584.335388	1044.000000
584.522461	1016.000000
584.709534	1011.000000
584.896667	1069.000000
585.083740	1043.000000
585.270813	994.000000
585.457947	975.000000
585.645020	1039.000000
585.832153	1045.000000
586.019226	988.000000
586.206360	979.000000
586.393433	1048.000000
586.580566	1039.000000
586.767639	1009.000000
586.954712	1009.000000
587.141846	1063.000000
587.328979	1060.000000
587.516052	1004.000000
587.703186	1022.000000
587.890320	1067.000000
588.077454	1057.000000
588.264587	1024.000000
588.451721	994.000000
588.638733	1058.000000
588.825867	1059.000000
589.013000	996.000000
589.200134	993.000000
589.387268	1042.000000
589.574402	1057.000000
589.761536	975.000000
589.948669	980.000000
590.135864	1035.000000
590.322998	1000.000000
590.510132	956.000000
590.697266	989.000000
590.884399	995.000000
591.071533	1019.000000
591.258728	969.000000
591.445862	944.000000
591.632935	998.000000
591.820190	1020.000000
592.007263	980.000000
592.194397	954.000000
592.381592	1014.000000
592.568726	1008.000000
592.755920	940.000000
592.943054	945.000000
593.130249	991.000000
593.317322	996.000000
593.504517	953.000000
593.691711	943.000000
593.878845	992.000000
594.066040	1020.000000
594.253235	936.000000
594.440369	911.000000
594.627563	992.000000
594.814758	975.000000
595.001953	961.000000
595.189087	929.000000
595.376282	985.000000
595.563477	993.000000
595.750671	968.000000
595.937866	920.000000
596.125061	966.000000
596.312256	977.000000
596.499451	929.000000
596.686646	930.000000
596.873779	974.000000
597.060974	988.000000
597.248169	925.000000
597.435364	923.000000
597.622559	957.000000
597.809753	969.000000
597.997009	941.000000
598.184143	918.000000
598.371338	985.000000
598.558533	953.000000
598.745789	924.000000
598.932983	927.000000
599.120178	935.000000
599.307434	940.000000
599.494629	874.000000
599.681885	887.000000
599.869080	949.000000
600.056335	906.000000
600.243530	853.000000
600.430786	852.000000
600.617981	890.000000
600.805237	923.000000
600.992432	857.000000
601.179687	864.000000
601.366943	905.000000
601.554138	916.000000
601.741333	848.000000
601.928589	853.000000
602.115845	884.000000
602.303040	922.000000
602.490295	857.000000
602.677551	848.000000
602.864807	902.000000
603.052002	887.000000
603.239258	858.000000
603.426514	837.000000
603.613770	889.000000
603.801025	885.000000
603.988281	867.000000
604.175537	824.000000
604.362793	893.000000
604.550049	881.000000
604.737305	807.000000
604.924561	813.000000
605.111816	882.000000
605.299072	868.000000
605.486389	806.000000
605.673645	812.000000
605.860901	844.000000
606.048157	858.000000
606.235474	784.000000
606.422729	811.000000
606.609924	848.000000
606.797241	824.000000
606.984497	776.000000
607.171814	796.000000
607.359070	872.000000
607.546387	842.000000
607.733643	773.000000
607.920898	786.000000
608.108154	811.000000
608.295471	816.000000
608.482727	773.000000
608.670044	770.000000
608.857361	818.000000
609.044617	806.000000
609.231934	783.000000
609.419250	757.000000
609.606567	786.000000
609.793823	781.000000
609.981140	740.000000
610.168457	753.000000
610.355774	790.000000
610.543091	784.000000
610.730408	751.000000
610.917725	741.000000
611.105042	786.000000
611.292358	776.000000
611.479614	739.000000
611.666931	735.000000
611.854248	770.000000
612.041565	775.000000
612.228882	739.000000
612.416199	717.000000
612.603516	768.000000
612.790771	767.000000
612.978088	723.000000
613.165466	709.000000
613.352783	740.000000
613.540100	771.000000
613.727417	699.000000
613.914795	693.000000
614.102112	753.000000
614.289490	744.000000
614.476807	683.000000
614.664124	686.000000
614.851501	768.000000
615.038818	735.000000
615.226196	682.000000
615.413513	684.000000
615.600891	739.000000
615.788208	722.000000
615.975586	673.000000
616.162903	664.000000
616.350220	718.000000
616.537598	706.000000
616.724915	664.000000
616.912292	675.000000
617.099670	721.000000
617.287048	700.000000
617.474365	678.000000
617.661682	659.000000
617.849060	681.000000
618.036438	707.000000
618.223816	647.000000
618.411194	642.000000
618.598511	691.000000
618.785889	693.000000
618.973267	636.000000
619.160645	664.000000
619.348022	663.000000
619.535400	678.000000
619.722778	643.000000
619.910156	628.000000
620.097595	692.000000
620.284973	668.000000
620.472351	620.000000
620.659729	615.000000
620.847107	670.000000
621.034485	642.000000
621.221863	636.000000
621.409241	606.000000
621.596619	656.000000
621.783997	665.000000
621.971436	609.000000
622.158813	605.000000
622.346252	643.000000
622.533569	641.000000
622.720947	608.000000
622.908386	585.000000
623.095764	641.000000
623.283203	639.000000
623.470581	596.000000
623.658020	598.000000
623.845398	649.000000
624.032837	636.000000
624.220276	570.000000
624.407654	583.000000
624.595093	615.000000
624.782471	601.000000
624.969910	574.000000
625.157349	573.000000
625.344788	603.000000
625.532166	612.000000
625.719604	559.000000
625.907043	580.000000
626.094421	598.000000
626.281860	630.000000
626.469299	543.000000
626.656677	561.000000
626.844116	600.000000
627.031555	608.000000
627.218994	561.000000
627.406372	544.000000
627.593811	609.000000
627.781250	573.000000
627.968689	537.000000
628.156128	534.000000
628.343628	596.000000
628.531067	599.000000
628.718506	531.000000
628.905945	531.000000
629.093384	572.000000
629.280823	564.000000
629.468323	547.000000
629.655762	571.000000
629.843201	591.000000
630.030701	567.000000
630.218140	539.000000
630.405579	514.000000
630.593079	544.000000
630.780518	556.000000
630.967896	519.000000
631.155396	511.000000
631.342834	568.000000
631.530334	536.000000
631.717773	517.000000
631.905273	505.000000
632.092712	559.000000
632.280151	550.000000
632.467590	504.000000
632.655090	509.000000
632.842590	551.000000
633.030029	547.000000
633.217529	510.000000
633.405029	487.000000
633.592529	518.000000
633.779968	538.000000
633.967468	495.000000
634.154968	478.000000
634.342468	521.000000
634.529907	534.000000
634.717407	489.000000
634.904907	500.000000
635.092407	537.000000
635.279907	529.000000
635.467407	484.000000
635.654907	481.000000
635.842346	514.000000
636.029846	522.000000
636.217346	482.000000
636.404846	485.000000
636.592346	502.000000
636.779846	530.000000
636.967346	475.000000
637.154785	459.000000
637.342346	499.000000
637.529846	494.000000
637.717346	462.000000
637.904846	474.000000
638.092346	505.000000
638.279907	493.000000
638.467407	469.000000
638.654907	456.000000
638.842468	509.000000
639.029968	501.000000
639.217468	461.000000
639.405029	443.000000
639.592529	481.000000
639.780090	478.000000
639.967590	452.000000
640.155090	450.000000
640.342651	499.000000
640.530151	492.000000
640.717651	457.000000
640.905212	435.000000
641.092712	496.000000
641.280273	469.000000
641.467773	428.000000
641.655334	433.000000
641.842896	490.000000
642.030334	479.000000
642.217896	421.000000
642.405457	452.000000
642.593018	465.000000
642.780518	489.000000
642.968079	419.000000
643.155640	426.000000
643.343201	491.000000
643.530762	450.000000
643.718323	430.000000
643.905823	404.000000
644.093384	460.000000
644.280945	458.000000
644.468506	412.000000
644.656067	407.000000
644.843628	459.000000
645.031189	453.000000
645.218750	408.000000
645.406311	405.000000
645.593811	441.000000
645.781433	445.000000
645.968994	401.000000
646.156555	394.000000
646.344116	440.000000
646.531677	447.000000
646.719238	398.000000
646.906799	410.000000
647.094360	443.000000
647.281921	428.000000
647.469482	393.000000
647.657104	388.000000
647.844666	440.000000
648.032227	455.000000
648.219849	399.000000
648.407410	413.000000
648.594971	433.000000
648.782593	450.000000
648.970154	393.000000
649.157776	378.000000
649.345337	421.000000
649.532959	428.000000
649.720520	388.000000
649.908142	393.000000
650.095703	436.000000
650.283325	419.000000
650.470886	388.000000
650.658447	381.000000
650.846069	436.000000
651.033691	404.000000
651.221252	381.000000
651.408875	367.000000
651.596497	439.000000
651.784058	421.000000
651.971619	375.000000
652.159241	370.000000
652.346863	394.000000
652.534485	434.000000
652.722107	371.000000
652.909668	366.000000
653.097290	400.000000
653.284912	394.000000
653.472534	354.000000
653.660156	376.000000
653.847778	398.000000
654.035400	406.000000
654.223022	372.000000
654.410645	376.000000
654.598267	388.000000
654.785889	402.000000
654.973511	402.000000
655.161133	352.000000
655.348755	390.000000
655.536377	393.000000
655.723999	338.000000
655.911621	352.000000
656.099243	388.000000
656.286865	371.000000
656.474548	358.000000
656.662109	344.000000
656.849731	388.000000
657.037415	407.000000
657.225037	354.000000
657.412659	341.000000
657.600342	405.000000
657.787964	382.000000
657.975586	350.000000
658.163269	348.000000
658.350891	393.000000
658.538574	383.000000
658.726196	353.000000
658.913879	342.000000
659.101501	390.000000
659.289185	383.000000
659.476807	347.000000
659.664490	340.000000
659.852112	393.000000
660.039795	381.000000
660.227417	327.000000
660.415039	348.000000
660.602722	395.000000
660.790405	388.000000
660.978027	336.000000
661.165710	314.000000
661.353394	404.000000
661.541016	382.000000
661.728638	331.000000
661.916321	316.000000
662.104004	364.000000
662.291687	373.000000
662.479370	335.000000
662.666992	328.000000
662.854675	380.000000
663.042358	353.000000
663.230042	333.000000
663.417725	325.000000
663.605408	368.000000
663.793091	353.000000
663.980774	326.000000
664.168457	326.000000
664.356140	357.000000
664.543823	365.000000
664.731506	308.000000
664.919189	338.000000
665.106812	366.000000
665.294556	345.000000
665.482239	324.000000
665.669922	326.000000
665.857605	351.000000
666.045288	348.000000
666.233032	323.000000
666.420654	324.000000
666.608337	370.000000
666.796021	355.000000
666.983765	319.000000
667.171448	314.000000
667.359131	357.000000
667.546875	348.000000
667.734558	308.000000
667.922241	312.000000
668.109985	343.000000
668.297668	353.000000
668.485413	314.000000
668.673096	300.000000
668.860840	347.000000
669.048523	358.000000
669.236267	327.000000
669.423950	306.000000
669.611694	361.000000
669.799377	345.000000
669.987061	303.000000
670.174744	301.000000
670.362488	360.000000
670.550232	336.000000
670.737915	315.000000
670.925659	315.000000
671.113403	338.000000
671.301025	336.000000
671.488770	299.000000
671.676514	302.000000
671.864258	368.000000
672.052002	331.000000
672.239685	299.000000
672.427429	302.000000
672.615173	365.000000
672.802917	339.000000
672.990662	310.000000
673.178406	308.000000
673.366089	355.000000
673.553833	348.000000
673.741577	308.000000
673.929321	311.000000
674.117065	332.000000
674.304810	352.000000
674.492554	308.000000
674.680298	289.000000
674.867981	342.000000
675.055725	326.000000
675.243530	286.000000
675.431274	314.000000
675.619019	346.000000
675.806763	329.000000
675.994507	289.000000
676.182190	296.000000
676.369934	344.000000
676.557739	318.000000
676.745483	292.000000
676.933228	308.000000
677.120972	339.000000
677.308777	336.000000
677.496521	293.000000
677.684265	284.000000
677.872070	355.000000
678.059814	319.000000
678.247559	297.000000
678.435364	281.000000
678.623108	320.000000
678.810852	314.000000
678.998657	298.000000
679.186401	289.000000
679.374207	326.000000
679.561951	337.000000
679.749695	282.000000
679.937439	275.000000
680.125244	334.000000
680.312988	341.000000
680.500793	280.000000
680.688538	276.000000
680.876343	328.000000
681.064087	320.000000
681.251831	267.000000
681.439636	297.000000
681.627441	335.000000
681.815186	328.000000
682.002991	269.000000
682.190796	277.000000
682.378540	321.000000
682.566345	337.000000
682.754150	271.000000
682.941956	282.000000
683.129700	324.000000
683.317505	323.000000
683.505310	279.000000
683.693115	270.000000
683.880920	331.000000
684.068726	327.000000
684.256531	266.000000
684.444275	267.000000
684.632019	338.000000
684.819824	338.000000
685.007629	277.000000
685.195435	271.000000
685.383240	318.000000
685.571045	338.000000
685.758850	288.000000
685.946594	271.000000
686.134399	335.000000
686.322205	325.000000
686.510071	268.000000
686.697876	270.000000
686.885681	326.000000
687.073486	304.000000
687.261292	292.000000
687.449097	274.000000
687.636902	326.000000
687.824768	323.000000
688.012573	278.000000
688.200378	276.000000
688.388184	326.000000
688.576050	330.000000
688.763855	289.000000
688.951660	256.000000
689.139526	319.000000
689.327332	313.000000
689.515076	266.000000
689.702942	280.000000
689.890747	323.000000
690.078552	312.000000
690.266418	287.000000
690.454224	270.000000
690.642090	307.000000
690.829834	311.000000
691.017700	262.000000
691.205505	264.000000
691.393372	331.000000
691.581177	309.000000
691.769043	257.000000
691.956848	271.000000
692.144714	311.000000
692.332520	309.000000
692.520386	260.000000
692.708191	263.000000
692.896057	312.000000
693.083923	323.000000
693.271729	260.000000
693.459595	251.000000
693.647461	319.000000
693.835266	331.000000
694.023132	268.000000
694.210999	266.000000
694.398804	322.000000
694.586609	307.000000
694.774475	286.000000
694.962341	253.000000
695.150208	310.000000
695.338074	322.000000
695.525940	257.000000
695.713684	262.000000
695.901550	358.000000
696.089417	341.000000
696.277283	270.000000
696.465149	266.000000
696.653015	326.000000
696.840881	320.000000
697.028748	266.000000
697.216614	257.000000
697.404480	302.000000
697.592346	320.000000
697.780212	259.000000
697.968079	255.000000
698.155945	329.000000
698.343811	317.000000
698.531677	250.000000
698.719543	247.000000
698.907410	309.000000
699.095276	306.000000
699.283142	253.000000
699.471008	256.000000
699.658875	335.000000
699.846741	336.000000
700.034607	268.000000
700.222534	257.000000
700.410400	318.000000
700.598206	296.000000
700.786072	267.000000
700.973999	279.000000
701.161865	319.000000
701.349731	296.000000
701.537598	250.000000
701.725525	251.000000
701.913391	312.000000
702.101257	302.000000
702.289185	259.000000
702.477051	264.000000
702.664978	329.000000
702.852844	303.000000
703.040771	270.000000
703.228638	259.000000
703.416504	322.000000
703.604431	291.000000
703.792297	259.000000
703.980225	247.000000
704.168030	310.000000
704.355957	311.000000
704.543884	262.000000
704.731750	258.000000
704.919678	311.000000
705.107544	304.000000
705.295471	255.000000
705.483276	266.000000
705.671204	303.000000
705.859131	306.000000
706.046997	269.000000
706.234924	270.000000
706.422852	330.000000
706.610779	298.000000
706.798645	251.000000
706.986572	237.000000
707.174500	301.000000
707.362366	316.000000
707.550293	242.000000
707.738220	260.000000
707.926147	296.000000
708.114075	302.000000
708.301941	243.000000
708.489868	240.000000
708.677795	316.000000
708.865723	291.000000
709.053589	260.000000
709.241516	253.000000
709.429443	316.000000
709.617371	309.000000
709.805298	252.000000
709.993225	251.000000
710.181152	303.000000
710.369019	310.000000
710.556946	238.000000
710.744873	269.000000
710.932800	298.000000
711.120728	298.000000
711.308655	240.000000
711.496582	242.000000
711.684509	303.000000
711.872437	315.000000
712.060364	250.000000
712.248291	248.000000
712.436218	310.000000
712.624146	284.000000
712.812134	249.000000
713.000061	249.000000
713.187988	322.000000
713.375916	321.000000
713.563843	256.000000
713.751831	245.000000
713.939697	310.000000
714.127625	292.000000
714.315552	236.000000
714.503540	256.000000
714.691467	324.000000
714.879395	282.000000
715.067322	255.000000
715.255249	250.000000
715.443176	322.000000
715.631165	291.000000
715.819092	255.000000
716.007019	236.000000
716.195007	300.000000
716.382935	296.000000
716.570862	242.000000
716.758850	244.000000
716.946777	307.000000
717.134766	294.000000
717.322693	244.000000
717.510681	252.000000
717.698608	290.000000
717.886597	296.000000
718.074524	239.000000
718.262512	238.000000
718.450439	298.000000
718.638428	293.000000
718.826355	252.000000
719.014282	253.000000
719.202271	307.000000
719.390198	282.000000
719.578186	253.000000
719.766174	239.000000
719.954102	294.000000
720.142029	286.000000
720.330017	238.000000
720.517944	259.000000
720.705933	316.000000
720.893921	309.000000
721.081848	264.000000
721.269836	249.000000
721.457825	309.000000
721.645813	298.000000
721.833740	238.000000
722.021729	248.000000
722.209717	284.000000
722.397705	302.000000
722.585693	231.000000
722.773682	223.000000
722.961609	319.000000
723.149597	295.000000
723.337585	250.000000
723.525574	252.000000
723.713501	299.000000
723.901489	314.000000
724.089478	252.000000
724.277466	246.000000
724.465454	275.000000
724.653442	290.000000
724.841431	243.000000
725.029358	251.000000
725.217346	295.000000
725.405334	310.000000
725.593323	239.000000
725.781311	235.000000
725.969299	296.000000
726.157288	281.000000
726.345276	243.000000
726.533264	239.000000
726.721252	317.000000
726.909241	308.000000
727.097229	240.000000
727.285217	237.000000
727.473206	328.000000
727.661255	291.000000
727.849243	244.000000
728.037231	244.000000
728.225220	313.000000
728.413208	301.000000
728.601135	238.000000
728.789185	234.000000
728.977173	298.000000
729.165161	294.000000
729.353149	248.000000
729.541199	241.000000
729.729187	304.000000
729.917114	294.000000
730.105164	234.000000
730.293152	246.000000
730.481140	306.000000
730.669189	289.000000
730.857178	246.000000
731.045166	238.000000
731.233215	293.000000
731.421204	291.000000
731.609192	248.000000
731.797241	252.000000
731.985229	303.000000
732.173279	300.000000
732.361267	245.000000
732.549316	254.000000
732.737305	302.000000
732.925293	284.000000
733.113342	244.000000
733.301331	251.000000
733.489319	290.000000
733.677307	310.000000
733.865356	230.000000
734.053406	237.000000
734.241394	312.000000
734.429443	295.000000
734.617432	234.000000
734.805420	223.000000
734.993408	303.000000
735.181458	288.000000
735.369507	244.000000
735.557495	234.000000
735.745544	291.000000
735.933594	306.000000
736.121582	231.000000
736.309631	244.000000
736.497681	292.000000
736.685669	290.000000
736.873718	234.000000
737.061768	236.000000
737.249756	291.000000
737.437805	293.000000
737.625854	264.000000
737.813904	278.000000
738.001892	312.000000
738.189941	301.000000
738.377930	237.000000
738.565979	248.000000
738.754028	312.000000
738.942017	288.000000
739.130066	244.000000
739.318115	252.000000
739.506165	282.000000
739.694153	277.000000
739.882202	241.000000
740.070251	251.000000
740.258240	299.000000
740.446289	298.000000
740.634338	247.000000
740.822388	242.000000
741.010437	308.000000
741.198486	291.000000
741.386536	249.000000
741.574585	249.000000
741.762634	330.000000
741.950684	289.000000
742.138733	240.000000
742.326782	235.000000
742.514832	290.000000
742.702881	312.000000
742.890930	246.000000
743.078979	239.000000
743.266968	299.000000
743.455017	295.000000
743.643066	236.000000
743.831116	248.000000
744.019165	302.000000
744.207275	288.000000
744.395325	237.000000
744.583313	230.000000
744.771362	324.000000
744.959412	286.000000
745.147461	232.000000
745.335510	236.000000
745.523621	305.000000
745.711670	296.000000
745.899719	239.000000
746.087769	251.000000
746.275818	303.000000
746.463928	287.000000
746.651978	240.000000
746.840027	243.000000
747.028076	304.000000
747.216187	298.000000
747.404236	252.000000
747.592285	239.000000
747.780334	289.000000
747.968445	304.000000
748.156433	237.000000
748.344482	256.000000
748.532593	309.000000
748.720642	302.000000
748.908691	263.000000
749.096802	254.000000
749.284851	289.000000
749.472900	325.000000
749.660950	267.000000
749.848999	261.000000
750.037109	319.000000
750.225159	300.000000
750.413269	243.000000
750.601318	264.000000
750.789368	326.000000
750.977478	336.000000
751.165527	258.000000
751.353638	240.000000
751.541687	283.000000
751.729797	298.000000
751.917847	244.000000
752.105957	232.000000
752.294006	288.000000
752.482117	293.000000
752.670166	242.000000
752.858276	226.000000
753.046265	299.000000
753.234375	284.000000
753.422485	256.000000
753.610535	242.000000
753.798645	287.000000
753.986694	284.000000
754.174805	243.000000
754.362854	241.000000
754.550903	293.000000
754.739014	286.000000
754.927124	246.000000
755.115173	240.000000
755.303284	287.000000
755.491394	295.000000
755.679443	241.000000
755.867554	248.000000
756.055664	315.000000
756.243713	314.000000
756.431824	233.000000
756.619934	238.000000
756.807983	283.000000
756.996094	289.000000
757.184204	224.000000
757.372314	245.000000
757.560364	292.000000
757.748474	291.000000
757.936523	238.000000
758.124634	262.000000
758.312744	307.000000
758.500793	318.000000
758.688904	240.000000
758.877014	225.000000
759.065125	293.000000
759.253174	301.000000
759.441284	237.000000
759.629333	239.000000
759.817444	291.000000
760.005554	287.000000
760.193665	240.000000
760.381775	245.000000
760.569885	280.000000
760.757996	296.000000
760.946106	251.000000
761.134216	229.000000
761.322327	320.000000
761.510437	294.000000
761.698486	229.000000
761.886597	245.000000
762.074707	280.000000
762.262817	310.000000
762.450928	241.000000
762.639038	284.000000
762.827087	404.000000
763.015198	401.000000
763.203308	303.000000
763.391418	266.000000
763.579529	328.000000
763.767639	298.000000
763.955750	242.000000
764.143860	250.000000
764.331970	289.000000
764.520081	299.000000
764.708191	248.000000
764.896301	236.000000
765.084412	293.000000
765.272522	314.000000
765.460632	232.000000
765.648743	226.000000
765.836853	296.000000
766.024963	286.000000
766.213135	231.000000
766.401245	241.000000
766.589355	294.000000
766.777466	293.000000
766.965576	242.000000
767.153687	230.000000
767.341858	303.000000
767.529968	296.000000
767.718018	222.000000
767.906128	243.000000
768.094238	288.000000
768.282410	307.000000
768.470520	232.000000
768.658630	250.000000
768.846741	298.000000
769.034851	290.000000
769.222961	238.000000
769.411072	244.000000
769.599182	302.000000
769.787354	299.000000
769.975464	237.000000
770.163574	222.000000
770.351746	291.000000
770.539856	281.000000
770.727966	229.000000
770.916138	235.000000
771.104248	289.000000
771.292358	296.000000
771.480530	239.000000
771.668640	262.000000
771.856750	323.000000
772.044922	308.000000
772.233032	255.000000
772.421143	241.000000
772.609253	310.000000
772.797363	282.000000
772.985535	256.000000
773.173645	241.000000
773.361755	299.000000
773.549927	283.000000
773.738037	245.000000
773.926147	229.000000
774.114258	288.000000
774.302429	279.000000
774.490540	230.000000
774.678650	241.000000
774.866821	310.000000
775.054932	285.000000
775.243103	226.000000
775.431213	248.000000
775.619385	308.000000
775.807495	269.000000
775.995667	240.000000
776.183777	251.000000
776.371948	288.000000
776.560059	289.000000
776.748230	237.000000
776.936340	234.000000
777.124512	312.000000
777.312683	299.000000
777.500732	223.000000
777.688904	239.000000
777.877014	299.000000
778.065186	296.000000
778.253296	243.000000
778.441467	235.000000
778.629639	285.000000
778.817688	300.000000
779.005859	246.000000
779.193970	228.000000
779.382141	288.000000
779.570312	280.000000
779.758423	248.000000
779.946594	241.000000
780.134766	297.000000
780.322876	289.000000
780.511047	227.000000
780.699219	223.000000
780.887329	282.000000
781.075500	287.000000
781.263672	241.000000
781.451782	227.000000
781.639954	305.000000
781.828125	297.000000
782.016235	240.000000
782.204407	244.000000
782.392517	296.000000
782.580688	283.000000
782.768799	243.000000
782.956970	233.000000
783.145142	292.000000
783.333313	299.000000
783.521423	254.000000
783.709534	216.000000
783.897705	291.000000
784.085876	281.000000
784.273987	252.000000
784.462158	225.000000
784.650330	288.000000
784.838501	285.000000
785.026672	241.000000
785.214783	257.000000
785.402954	304.000000
785.591125	294.000000
785.779297	232.000000
785.967468	222.000000
786.155579	287.000000
786.343750	293.000000
786.531921	251.000000
786.720093	235.000000
786.908264	300.000000
787.096436	277.000000
787.284546	233.000000
787.472656	240.000000
787.660828	286.000000
787.848999	287.000000
788.037170	226.000000
788.225342	232.000000
788.413513	314.000000
788.601624	300.000000
788.789795	234.000000
788.977966	231.000000
789.166138	287.000000
789.354248	309.000000
789.542419	226.000000
789.730591	237.000000
789.918762	278.000000
790.106934	306.000000
790.295105	244.000000
790.483276	233.000000
790.671448	290.000000
790.859619	286.000000
791.047791	256.000000
791.235962	232.000000
791.424133	285.000000
791.612305	292.000000
791.800476	244.000000
791.988647	230.000000
792.176758	282.000000
792.364929	283.000000
792.553101	229.000000
792.741272	229.000000
792.929443	295.000000
793.117615	291.000000
793.305786	225.000000
793.493896	262.000000
793.682068	292.000000
793.870239	302.000000
794.058411	257.000000
794.246582	265.000000
794.434753	307.000000
794.622925	312.000000
794.811096	250.000000
794.999329	232.000000
795.187500	288.000000
795.375671	289.000000
795.563843	230.000000
795.752014	254.000000
795.940186	284.000000
796.128357	296.000000
796.316528	234.000000
796.504700	246.000000
796.692871	290.000000
796.881042	285.000000
797.069214	236.000000
797.257385	224.000000
797.445557	297.000000
797.633728	279.000000
797.821899	230.000000
798.010071	223.000000
798.198242	296.000000
798.386414	283.000000
798.574585	241.000000
798.762756	230.000000
798.950928	291.000000
799.139099	294.000000
799.327271	230.000000
799.515442	241.000000
799.703674	303.000000
799.891846	318.000000
800.080017	252.000000
800.268188	257.000000
800.456360	308.000000
800.644592	309.000000
800.832764	273.000000
801.020935	267.000000
801.209106	292.000000
801.397278	293.000000
801.585510	237.000000
801.773682	236.000000
801.961792	296.000000
802.149963	284.000000
802.338196	223.000000
802.526367	237.000000
802.714539	302.000000
802.902710	279.000000
803.090942	229.000000
803.279053	226.000000
803.467224	275.000000
803.655396	283.000000
803.843628	246.000000
804.031799	226.000000
804.219971	307.000000
804.408142	290.000000
804.596375	236.000000
804.784546	256.000000
804.972717	288.000000
805.160889	287.000000
805.349121	235.000000
805.537292	226.000000
805.725464	287.000000
805.913696	296.000000
806.101868	232.000000
806.290039	242.000000
806.478271	281.000000
806.666443	274.000000
806.854553	257.000000
807.042725	238.000000
807.230957	280.000000
807.419128	295.000000
807.607300	241.000000
807.795532	227.000000
807.983704	279.000000
808.171814	275.000000
808.360046	243.000000
808.548218	233.000000
808.736450	292.000000
808.924622	304.000000
809.112793	232.000000
809.301025	258.000000
809.489197	328.000000
809.677368	312.000000
809.865601	268.000000
810.053772	268.000000
810.241943	292.000000
810.430176	311.000000
810.618347	312.000000
810.806580	362.000000
810.994751	405.000000
811.182922	374.000000
811.371155	299.000000
811.559326	262.000000
811.747437	339.000000
811.935669	292.000000
812.123840	236.000000
812.312073	248.000000
812.500244	287.000000
812.688416	283.000000
812.876648	240.000000
813.064758	229.000000
813.252991	293.000000
813.441162	300.000000
813.629395	235.000000
813.817566	240.000000
814.005737	286.000000
814.193970	275.000000
814.382141	238.000000
814.570374	258.000000
814.758545	302.000000
814.946777	309.000000
815.134949	238.000000
815.323120	235.000000
815.511353	293.000000
815.699524	292.000000
815.887756	237.000000
816.075928	240.000000
816.264160	283.000000
816.452332	294.000000
816.640503	231.000000
816.828674	243.000000
817.016907	284.000000
817.205078	286.000000
817.393250	230.000000
817.581482	232.000000
817.769653	295.000000
817.957825	283.000000
818.145996	234.000000
818.334229	232.000000
818.522400	293.000000
818.710632	289.000000
818.898804	259.000000
819.087036	244.000000
819.275208	283.000000
819.463440	276.000000
819.651611	246.000000
819.839844	227.000000
820.028015	308.000000
820.216248	283.000000
820.404419	232.000000
820.592651	247.000000
820.780823	289.000000
820.969055	279.000000
821.157227	237.000000
821.345459	250.000000
821.533569	287.000000
821.721802	288.000000
821.909973	224.000000
822.098206	233.000000
822.286377	280.000000
822.474609	274.000000
822.662781	230.000000
822.850952	253.000000
823.039124	280.000000
823.227356	286.000000
823.415527	236.000000
823.603760	250.000000
823.791931	277.000000
823.980164	298.000000
824.168396	239.000000
824.356567	230.000000
824.544800	287.000000
824.732971	273.000000
824.921204	240.000000
825.109375	253.000000
825.297607	313.000000
825.485779	296.000000
825.674011	251.000000
825.862183	250.000000
826.050415	293.000000
826.238586	308.000000
826.426758	248.000000
826.614990	240.000000
826.803162	292.000000
826.991394	292.000000
827.179565	252.000000
827.367798	237.000000
827.555969	283.000000
827.744141	275.000000
827.932312	232.000000
828.120544	229.000000
828.308777	268.000000
828.496948	290.000000
828.685181	245.000000
828.873352	239.000000
829.061584	285.000000
829.249756	313.000000
829.437988	248.000000
829.626160	249.000000
829.814392	274.000000
830.002625	269.000000
830.190796	238.000000
830.379028	235.000000
830.567200	298.000000
830.755432	283.000000
830.943604	242.000000
831.131836	236.000000
831.320007	293.000000
831.508179	305.000000
831.696411	224.000000
831.884583	233.000000
832.072815	311.000000
832.260986	277.000000
832.449219	267.000000
832.637390	239.000000
832.825562	300.000000
833.013794	276.000000
833.201965	236.000000
833.390198	255.000000
833.578369	300.000000
833.766602	278.000000
833.954834	230.000000
834.143005	232.000000
834.331238	312.000000
834.519409	282.000000
834.707642	238.000000
834.895874	229.000000
835.084045	281.000000
835.272278	292.000000
835.460449	225.000000
835.648682	246.000000
835.836853	267.000000
836.025085	289.000000
836.213257	231.000000
836.401428	240.000000
836.589661	282.000000
836.777832	283.000000
836.966064	243.000000
837.154236	251.000000
837.342468	280.000000
837.530640	281.000000
837.718811	230.000000
837.907043	246.000000
838.095215	294.000000
838.283447	290.000000
838.471680	244.000000
838.659851	227.000000
838.848083	284.000000
839.036255	274.000000
839.224487	251.000000
839.412659	232.000000
839.600891	288.000000
839.789124	279.000000
839.977295	257.000000
840.165527	259.000000
840.353699	307.000000
840.541931	295.000000
840.730103	246.000000
840.918335	242.000000
841.106506	279.000000
841.294678	295.000000
841.482910	264.000000
841.671082	277.000000
841.859314	320.000000
842.047546	289.000000
842.235718	253.000000
842.423889	238.000000
842.612061	298.000000
842.800293	284.000000
842.988464	225.000000
843.176697	260.000000
843.364929	286.000000
843.553101	288.000000
843.741333	240.000000
843.929504	243.000000
844.117737	284.000000
844.305908	286.000000
844.494141	231.000000
844.682312	237.000000
844.870544	297.000000
845.058777	290.000000
845.246948	235.000000
845.435181	243.000000
845.623352	278.000000
845.811584	289.000000
845.999695	247.000000
846.187927	247.000000
846.376160	304.000000
846.564331	287.000000
846.752563	257.000000
846.940735	236.000000
847.128967	282.000000
847.317078	285.000000
847.505310	246.000000
847.693481	268.000000
847.881714	296.000000
848.069946	278.000000
848.258118	233.000000
848.446350	244.000000
848.634521	256.000000
848.822754	269.000000
849.010925	223.000000
849.199158	228.000000
849.387329	307.000000
849.575562	297.000000
849.763733	285.000000
849.951965	278.000000
850.140137	287.000000
850.328369	277.000000
850.516602	238.000000
850.704773	246.000000
850.892944	293.000000
851.081116	294.000000
851.269348	236.000000
851.457520	246.000000
851.645752	304.000000
851.833923	279.000000
852.022156	249.000000
852.210266	238.000000
852.398499	290.000000
852.586670	294.000000
852.774902	234.000000
852.963074	237.000000
853.151306	298.000000
853.339478	283.000000
853.527710	234.000000
853.715881	235.000000
853.904114	293.000000
854.092285	282.000000
854.280518	251.000000
854.468689	248.000000
854.656921	297.000000
854.845093	300.000000
855.033325	234.000000
855.221497	227.000000
855.409729	269.000000
855.597900	280.000000
855.786133	244.000000
855.974304	236.000000
856.162537	270.000000
856.350708	298.000000
856.538818	244.000000
856.726990	238.000000
856.915222	291.000000
857.103394	294.000000
857.291626	231.000000
857.479797	244.000000
857.667969	278.000000
857.856201	287.000000
858.044373	252.000000
858.232605	241.000000
858.420776	275.000000
858.609009	279.000000
858.797180	235.000000
858.985413	240.000000
859.173584	296.000000
859.361816	278.000000
859.549988	267.000000
859.738159	245.000000
859.926392	276.000000
860.114563	288.000000
860.302795	243.000000
860.490967	232.000000
860.679199	288.000000
860.867371	279.000000
861.055542	238.000000
861.243774	247.000000
861.431824	279.000000
861.620056	269.000000
861.808228	248.000000
861.996399	240.000000
862.184631	276.000000
862.372803	307.000000
862.561035	246.000000
862.749207	223.000000
862.937378	284.000000
863.125610	294.000000
863.313782	227.000000
863.502014	245.000000
863.690186	289.000000
863.878357	301.000000
864.066589	243.000000
864.254761	245.000000
864.442993	283.000000
864.631165	282.000000
864.819336	251.000000
865.007568	246.000000
865.195740	267.000000
865.383911	309.000000
865.572144	230.000000
865.760315	238.000000
865.948486	284.000000
866.136719	299.000000
866.324768	242.000000
866.512939	236.000000
866.701172	297.000000
866.889343	293.000000
867.077515	253.000000
867.265747	248.000000
867.453918	285.000000
867.642090	286.000000
867.830322	236.000000
868.018494	246.000000
868.206665	276.000000
868.394897	290.000000
868.583069	229.000000
868.771240	232.000000
868.959473	276.000000
869.147644	304.000000
869.335815	235.000000
869.523987	230.000000
869.712219	309.000000
869.900391	268.000000
870.088562	246.000000
870.276733	247.000000
870.464966	276.000000
870.653137	273.000000
870.841309	239.000000
871.029541	279.000000
871.217590	287.000000
871.405762	283.000000
871.593933	238.000000
871.782166	226.000000
871.970337	287.000000
872.158508	284.000000
872.346680	231.000000
872.534851	262.000000
872.723083	295.000000
872.911255	289.000000
873.099426	238.000000
873.287598	241.000000
873.475830	282.000000
873.664001	280.000000
873.852173	233.000000
874.040344	232.000000
874.228516	282.000000
874.416748	274.000000
874.604919	246.000000
874.793091	236.000000
874.981262	287.000000
875.169434	281.000000
875.357605	231.000000
875.545837	266.000000
875.734009	278.000000
875.922180	304.000000
876.110229	241.000000
876.298401	232.000000
876.486572	291.000000
876.674805	295.000000
876.862976	236.000000
877.051147	244.000000
877.239319	278.000000
877.427490	281.000000
877.615662	248.000000
877.803833	240.000000
877.992004	294.000000
878.180176	305.000000
878.368408	239.000000
878.556580	248.000000
878.744751	292.000000
878.932922	296.000000
879.121094	237.000000
879.309265	234.000000
879.497437	288.000000
879.685608	281.000000
879.873779	278.000000
880.061951	244.000000
880.250122	286.000000
880.438293	290.000000
880.626465	261.000000
880.814636	242.000000
881.002747	279.000000
881.190918	284.000000
881.379089	230.000000
881.567261	248.000000
881.755432	288.000000
881.943604	310.000000
882.131775	262.000000
882.319946	244.000000
882.508118	284.000000
882.696289	288.000000
882.884460	254.000000
883.072632	255.000000
883.260803	290.000000
883.448975	259.000000
883.637146	236.000000
883.825317	264.000000
884.013428	283.000000
884.201599	279.000000
884.389771	236.000000
884.577942	243.000000
884.766113	286.000000
884.954285	272.000000
885.142456	242.000000
885.330627	229.000000
885.518799	274.000000
885.706970	266.000000
885.895020	232.000000
886.083191	238.000000
886.271362	293.000000
886.459534	293.000000
886.647644	239.000000
886.835815	244.000000
887.023987	292.000000
887.212158	284.000000
887.400330	238.000000
887.588501	235.000000
887.776672	297.000000
887.964783	283.000000
888.152954	236.000000
888.341125	260.000000
888.529297	267.000000
888.717468	273.000000
888.905640	233.000000
889.093750	235.000000
889.281921	276.000000
889.470093	265.000000
889.658264	263.000000
889.846436	228.000000
890.034546	283.000000
890.222717	277.000000
890.410889	231.000000
890.599060	250.000000
890.787109	292.000000
890.975220	295.000000
891.163391	251.000000
891.351562	240.000000
891.539734	292.000000
891.727844	280.000000
891.916016	274.000000
892.104187	237.000000
892.292358	282.000000
892.480469	273.000000
892.668640	236.000000
892.856812	243.000000
893.044922	317.000000
893.233093	273.000000
893.421265	233.000000
893.609375	238.000000
893.797546	282.000000
893.985718	280.000000
894.173828	240.000000
894.362000	251.000000
894.550171	291.000000
894.738281	281.000000
894.926453	262.000000
895.114624	242.000000
895.302734	283.000000
895.490906	269.000000
895.678894	235.000000
895.867065	247.000000
896.055237	280.000000
896.243347	309.000000
896.431519	231.000000
896.619629	234.000000
896.807800	294.000000
896.995972	282.000000
897.184082	243.000000
897.372253	232.000000
897.560364	291.000000
897.748535	300.000000
897.936646	236.000000
898.124817	246.000000
898.312927	297.000000
898.501099	284.000000
898.689209	257.000000
898.877380	237.000000
899.065491	296.000000
899.253662	271.000000
899.441772	235.000000
899.629944	251.000000
899.818054	268.000000
900.006226	264.000000
900.194336	229.000000
900.382507	240.000000
900.570496	281.000000
900.758667	286.000000
900.946777	274.000000
901.134888	239.000000
901.323059	281.000000
901.511169	275.000000
901.699341	230.000000
901.887451	247.000000
902.075562	278.000000
902.263733	295.000000
902.451843	237.000000
902.640015	246.000000
902.828125	290.000000
903.016235	280.000000
903.204407	241.000000
903.392517	240.000000
903.580627	285.000000
903.768799	315.000000
903.956909	246.000000
904.145020	262.000000
904.333130	288.000000
904.521301	278.000000
904.709412	242.000000
904.897522	239.000000
905.085693	280.000000
905.273804	272.000000
905.461792	233.000000
905.649902	230.000000
905.838074	293.000000
906.026184	279.000000
906.214294	253.000000
906.402405	263.000000
906.590576	282.000000
906.778687	274.000000
906.966797	247.000000
907.154907	238.000000
907.343018	281.000000
907.531189	264.000000
907.719299	254.000000
907.907410	228.000000
908.095520	296.000000
908.283630	288.000000
908.471741	253.000000
908.659851	236.000000
908.848022	286.000000
909.036133	284.000000
909.224243	234.000000
909.412354	240.000000
909.600464	285.000000
909.788574	275.000000
909.976685	249.000000
910.164795	235.000000
910.352783	295.000000
910.540894	281.000000
910.729004	241.000000
910.917114	232.000000
911.105225	310.000000
911.293335	303.000000
911.481445	258.000000
911.669556	252.000000
911.857666	306.000000
912.045776	306.000000
912.233887	255.000000
912.421997	251.000000
912.610107	310.000000
912.798218	280.000000
912.986328	243.000000
913.174438	238.000000
913.362549	318.000000
913.550659	292.000000
913.738770	246.000000
913.926880	248.000000
914.114990	296.000000
914.303101	284.000000
914.491211	233.000000
914.679321	234.000000
914.867371	292.000000
915.055481	302.000000
915.243469	234.000000
915.431580	247.000000
915.619690	285.000000
915.807800	278.000000
915.995850	234.000000
916.183960	239.000000
916.372070	278.000000
916.560181	300.000000
916.748291	231.000000
916.936340	256.000000
917.124451	285.000000
917.312561	292.000000
917.500671	267.000000
917.688721	235.000000
917.876831	279.000000
918.064941	287.000000
918.253052	247.000000
918.441101	241.000000
918.629211	305.000000
918.817322	299.000000
919.005371	244.000000
919.193481	246.000000
919.381592	292.000000
919.569641	269.000000
919.757751	230.000000
919.945862	247.000000
920.133789	273.000000
920.321899	286.000000
920.509949	240.000000
920.698059	248.000000
920.886169	280.000000
921.074219	287.000000
921.262329	251.000000
921.450378	232.000000
921.638489	286.000000
921.826538	288.000000
922.014648	240.000000
922.202759	263.000000
922.390808	280.000000
922.578918	290.000000
922.766968	244.000000
922.955078	243.000000
923.143127	289.000000
923.331238	292.000000
923.519287	249.000000
923.707336	257.000000
923.895447	290.000000
924.083496	273.000000
924.271606	239.000000
924.459656	231.000000
924.647766	283.000000
924.835815	281.000000
925.023743	237.000000
925.211853	260.000000
925.399902	293.000000
925.588013	288.000000
925.776062	266.000000
925.964111	258.000000
926.152222	296.000000
926.340271	274.000000
926.528320	239.000000
926.716370	245.000000
926.904480	300.000000
927.092529	271.000000
927.280579	239.000000
927.468689	254.000000
927.656738	292.000000
927.844788	287.000000
928.032837	261.000000
928.220947	237.000000
928.408997	266.000000
928.597046	281.000000
928.785095	260.000000
928.973145	228.000000
929.161255	279.000000
929.349304	278.000000
929.537354	267.000000
929.725403	247.000000
929.913330	279.000000
930.101379	293.000000
930.289429	233.000000
930.477539	230.000000
930.665588	290.000000
930.853638	271.000000
931.041687	245.000000
931.229736	235.000000
931.417786	298.000000
931.605835	275.000000
931.793884	241.000000
931.981934	253.000000
932.169983	287.000000
932.358032	284.000000
932.546082	245.000000
932.734131	256.000000
932.922180	302.000000
933.110229	298.000000
933.298279	236.000000
933.486328	233.000000
933.674377	280.000000
933.862427	278.000000
934.050476	266.000000
934.238525	236.000000
934.426575	291.000000
934.614563	287.000000
934.802490	241.000000
934.990540	234.000000
935.178589	285.000000
935.366638	276.000000
935.554687	250.000000
935.742676	244.000000
935.930725	289.000000
936.118774	302.000000
936.306824	247.000000
936.494873	235.000000
936.682861	273.000000
936.870911	276.000000
937.058960	237.000000
937.247009	238.000000
937.434998	291.000000
937.623047	274.000000
937.811096	230.000000
937.999146	251.000000
938.187134	282.000000
938.375183	272.000000
938.563232	247.000000
938.751221	245.000000
938.939270	280.000000
939.127258	280.000000
939.315308	232.000000
939.503357	255.000000
939.691223	282.000000
939.879272	273.000000
940.067261	243.000000
940.255310	254.000000
940.443359	288.000000
940.631348	303.000000
940.819397	263.000000
941.007385	229.000000
941.195435	295.000000
941.383423	276.000000
941.571472	252.000000
941.759460	261.000000
941.947510	293.000000
942.135498	274.000000
942.323486	245.000000
942.511536	241.000000
942.699524	289.000000
942.887573	280.000000
943.075562	249.000000
943.263550	234.000000
943.451599	271.000000
943.639587	270.000000
943.827637	233.000000
944.015625	268.000000
944.203613	303.000000
944.391663	272.000000
944.579529	238.000000
944.767517	240.000000
944.955505	284.000000
945.143555	292.000000
945.331543	248.000000
945.519531	240.000000
945.707520	263.000000
945.895569	275.000000
946.083557	249.000000
946.271545	251.000000
946.459534	280.000000
946.647522	287.000000
946.835571	240.000000
947.023560	243.000000
947.211548	277.000000
947.399536	272.000000
947.587524	258.000000
947.775513	245.000000
947.963501	294.000000
948.151489	287.000000
948.339478	256.000000
948.527527	230.000000
948.715515	283.000000
948.903503	286.000000
949.091492	248.000000
949.279480	236.000000
949.467346	284.000000
949.655334	270.000000
949.843323	259.000000
950.031311	247.000000
950.219299	282.000000
950.407227	268.000000
950.595215	232.000000
950.783203	244.000000
950.971191	279.000000
951.159180	270.000000
951.347168	232.000000
951.535156	236.000000
951.723145	286.000000
951.911133	291.000000
952.099060	233.000000
952.287048	252.000000
952.475037	278.000000
952.663025	268.000000
952.851013	248.000000
953.038940	238.000000
953.226929	283.000000
953.414917	277.000000
953.602905	242.000000
953.790833	256.000000
953.978821	294.000000
954.166809	272.000000
954.354614	259.000000
954.542603	242.000000
954.730591	284.000000
954.918518	280.000000
955.106506	236.000000
955.294495	249.000000
955.482422	274.000000
955.670410	269.000000
955.858337	256.000000
956.046326	257.000000
956.234253	275.000000
956.422241	271.000000
956.610168	236.000000
956.798157	237.000000
956.986084	294.000000
957.174072	255.000000
957.362000	237.000000
957.549988	247.000000
957.737915	277.000000
957.925903	289.000000
958.113831	236.000000
958.301819	246.000000
958.489746	276.000000
958.677673	270.000000
958.865662	263.000000
959.053589	252.000000
959.241455	271.000000
959.429382	255.000000
959.617310	250.000000
959.805237	232.000000
959.993225	278.000000
960.181152	275.000000
960.369080	232.000000
960.557068	252.000000
960.744995	274.000000
960.932922	255.000000
961.120850	251.000000
961.308777	258.000000
961.496765	272.000000
961.684692	272.000000
961.872620	257.000000
962.060547	232.000000
962.248474	280.000000
962.436401	281.000000
962.624329	250.000000
962.812317	236.000000
963.000244	294.000000
963.188171	263.000000
963.376099	250.000000
963.564026	248.000000
963.751953	288.000000
963.939880	274.000000
964.127686	240.000000
964.315613	252.000000
964.503540	286.000000
964.691467	272.000000
964.879395	249.000000
965.067322	252.000000
965.255249	285.000000
965.443115	292.000000
965.631042	250.000000
965.818970	236.000000
966.006897	265.000000
966.194824	294.000000
966.382751	243.000000
966.570679	243.000000
966.758545	277.000000
966.946472	274.000000
967.134399	255.000000
967.322327	234.000000
967.510193	284.000000
967.698120	256.000000
967.886047	230.000000
968.073975	251.000000
968.261841	275.000000
968.449768	270.000000
968.637695	249.000000
968.825562	244.000000
969.013367	294.000000
969.201294	274.000000
969.389160	238.000000
969.577087	255.000000
969.764954	289.000000
969.952881	253.000000
970.140747	250.000000
970.328674	255.000000
970.516602	266.000000
970.704468	286.000000
970.892395	272.000000
971.080261	238.000000
971.268188	296.000000
971.456055	275.000000
971.643921	233.000000
971.831848	259.000000
972.019714	277.000000
972.207642	279.000000
972.395508	243.000000
972.583374	243.000000
972.771301	272.000000
972.959167	279.000000
973.147034	246.000000
973.334961	233.000000
973.522827	277.000000
973.710693	276.000000
973.898499	240.000000
974.086365	246.000000
974.274231	272.000000
974.462097	266.000000
974.649963	252.000000
974.837891	242.000000
975.025757	268.000000
975.213623	270.000000
975.401489	239.000000
975.589355	249.000000
975.777222	273.000000
975.965088	259.000000
976.153015	268.000000
976.340881	245.000000
976.528748	278.000000
976.716614	273.000000
976.904480	239.000000
977.092346	261.000000
977.280212	265.000000
977.468079	280.000000
977.655945	249.000000
977.843811	245.000000
978.031677	261.000000
978.219543	266.000000
978.407349	237.000000
978.595215	244.000000
978.782959	301.000000
978.970825	277.000000
979.158691	238.000000
979.346558	235.000000
979.534424	288.000000
979.722229	297.000000
979.910095	262.000000
980.097961	259.000000
980.285828	283.000000
980.473633	266.000000
980.661499	240.000000
980.849365	244.000000
981.037231	279.000000
981.225037	263.000000
981.412903	244.000000
981.600769	243.000000
981.788574	284.000000
981.976440	286.000000
982.164246	240.000000
982.352112	242.000000
982.539978	273.000000
982.727783	261.000000
982.915649	248.000000
983.103455	257.000000
983.291321	275.000000
983.479126	268.000000
983.666870	255.000000
983.854675	246.000000
984.042542	282.000000
984.230347	281.000000
984.418152	242.000000
984.606018	252.000000
984.793823	279.000000
984.981689	262.000000
985.169495	239.000000
985.357300	243.000000
985.545166	292.000000
985.732971	269.000000
985.920776	276.000000
986.108582	243.000000
986.296448	272.000000
986.484253	292.000000
986.672058	254.000000
986.859863	239.000000
987.047668	270.000000
987.235535	277.000000
987.423340	259.000000
987.611145	248.000000
987.798950	291.000000
987.986755	264.000000
988.174561	257.000000
988.362366	250.000000
988.550049	274.000000
988.737854	281.000000
988.925659	246.000000
989.113464	238.000000
989.301270	281.000000
989.489075	277.000000
989.676880	239.000000
989.864685	261.000000
990.052490	279.000000
990.240295	293.000000
990.428101	242.000000
990.615906	236.000000
990.803711	288.000000
990.991516	281.000000
991.179321	261.000000
991.367065	245.000000
991.554871	276.000000
991.742676	266.000000
991.930481	235.000000
992.118225	244.000000
992.306030	274.000000
992.493835	288.000000
992.681641	250.000000
992.869385	270.000000
993.057190	281.000000
993.244995	272.000000
993.432617	245.000000
993.620422	225.000000
993.808167	305.000000
993.995972	268.000000
994.183777	244.000000
994.371521	239.000000
994.559326	291.000000
994.747070	275.000000
994.934875	249.000000
995.122620	239.000000
995.310425	284.000000
995.498169	275.000000
995.685974	249.000000
995.873718	234.000000
996.061462	269.000000
996.249268	270.000000
996.437012	243.000000
996.624756	236.000000
996.812561	271.000000
997.000305	263.000000
997.188049	257.000000
997.375854	249.000000
997.563599	280.000000
997.751343	272.000000
997.939087	239.000000
998.126892	251.000000
998.314514	269.000000
998.502258	256.000000
998.690002	235.000000
998.877747	244.000000
999.065491	273.000000
999.253235	271.000000
999.440979	258.000000
999.628784	240.000000
999.816528	277.000000
1000.004272	265.000000
1000.192017	0.000000
1000.379761	0.000000
1000.567505	0.000000
1000.755249	0.000000
1000.942993	0.000000
1001.130676	0.000000
1001.318420	0.000000
1001.506165	0.000000
1001.693909	0.000000
1001.881653	0.000000
1002.069397	0.000000
1002.257141	0.000000
1002.444824	0.000000
1002.632568	0.000000
1002.820312	0.000000
1003.008057	0.000000
1003.195679	0.000000
1003.383362	0.000000
1003.571106	0.000000
1003.758850	0.000000
1003.946533	0.000000
1004.134277	0.000000
1004.322021	0.000000
1004.509705	0.000000
1004.697449	0.000000
1004.885132	0.000000
1005.072876	0.000000
1005.260559	0.000000
1005.448303	0.000000
1005.635986	0.000000
1005.823730	0.000000
1006.011414	0.000000
1006.199158	0.000000
1006.386841	0.000000
1006.574585	0.000000
1006.762268	0.000000
1006.949951	0.000000
1007.137695	0.000000
1007.325378	0.000000
1007.513062	0.000000
1007.700806	0.000000
1007.888489	0.000000
1008.076050	0.000000
1008.263794	0.000000
1008.451477	0.000000
1008.639160	0.000000
1008.826843	0.000000
1009.014526	0.000000
1009.202271	0.000000
1009.389954	0.000000
1009.577637	0.000000
1009.765320	0.000000
1009.953003	0.000000
1010.140686	0.000000
1010.328369	0.000000
1010.516052	0.000000
1010.703735	0.000000
1010.891418	0.000000
1011.079102	0.000000
1011.266785	0.000000
1011.454468	0.000000
1011.642151	0.000000
1011.829834	0.000000
1012.017517	0.000000
1012.205139	0.000000
1012.392822	0.000000
1012.580505	0.000000
1012.768188	0.000000
1012.955750	0.000000
1013.143372	0.000000
1013.331055	0.000000
1013.518738	0.000000
1013.706421	0.000000
1013.894043	0.000000
1014.081726	0.000000
1014.269409	0.000000
1014.457031	0.000000
1014.644714	0.000000
1014.832336	0.000000
1015.020020	0.000000
1015.207703	0.000000
