339.61327788 0.0
340.06583261 0.0
340.51844356 0.0
340.97111069 0.0
341.42383397 0.0
341.87661336 0.0
342.32944883 0.0
342.78234033 0.0
343.23528784 0.0
343.68829131 0.0
344.1413507 0.0
344.59446599 0.0
345.04763714 0.0
345.5008641 0.0
345.95414684 0.0
346.40748532 0.0
346.86087951 0.0
347.31432937 0.0
347.76783486 0.0
348.22139595 0.0
348.6750126 0.0
349.12868478 0.0
349.58241244 0.0
350.03619554 78.6666666667
350.49003406 286.0
350.94392796 259.666666667
351.3978772 260.5
351.85188173 266.0
352.30594153 256.5
352.76005657 269.666666667
353.21422679 281.5
353.66845217 250.0
354.12273266 278.5
354.57706824 258.666666667
355.03145886 269.5
355.48590449 273.0
355.94040509 264.333333333
356.39496062 283.0
356.84957105 263.333333333
357.30423634 264.5
357.75895646 269.0
358.21373136 248.5
358.66856102 273.333333333
359.12344538 264.0
359.57838442 267.666666667
360.03337811 288.5
360.48842639 260.333333333
360.94352924 267.0
361.39868662 288.333333333
361.8538985 240.5
362.30916483 270.666666667
362.76448558 258.5
363.21986071 266.5
363.67529018 265.0
364.13077397 262.5
364.58631202 303.333333333
365.04190431 294.0
365.4975508 278.333333333
365.95325145 285.5
366.40900623 260.0
366.86481509 269.0
367.32067801 280.666666667
367.77659494 250.0
368.23256584 271.0
368.68859069 263.5
369.14466944 250.333333333
369.60080206 292.0
370.05698851 271.0
370.51322875 253.0
370.96952275 279.0
371.42587047 256.0
371.88227187 276.0
372.33872691 258.666666667
372.79523557 273.0
373.2517978 279.333333333
373.70841357 249.5
374.16508283 273.666666667
374.62180556 267.0
375.07858171 257.666666667
375.53541125 283.5
375.99229415 261.666666667
376.44923035 281.5
376.90621984 283.666666667
377.36326257 249.5
377.8203585 282.333333333
378.2775076 266.0
378.73470984 266.333333333
379.19196516 293.5
379.64927355 283.0
380.10663495 278.0
380.56404934 277.666666667
381.02151668 256.0
381.47903693 279.333333333
381.93661005 277.0
382.394236 279.0
382.85191476 288.333333333
383.30964628 268.5
383.76743053 284.666666667
384.22526746 289.0
384.68315705 284.333333333
385.14109926 317.0
385.59909404 274.0
386.05714137 290.5
386.5152412 299.666666667
386.97339351 269.0
387.43159824 294.666666667
387.88985537 294.5
388.34816486 290.333333333
388.80652667 328.5
389.26494076 286.666666667
389.7234071 292.5
390.18192566 300.0
390.64049638 281.0
391.09911925 301.0
391.55779422 298.0
392.01652125 292.666666667
392.4753003 317.5
392.93413135 303.0
393.39301436 292.5
393.85194927 314.0
394.31093607 295.0
394.76997472 316.5
395.22906517 290.333333333
395.68820739 311.0
396.14740134 310.333333333
396.60664699 293.5
397.06594429 315.333333333
397.52529322 319.5
397.98469374 302.666666667
398.44414581 324.5
398.90364938 314.0
399.36320444 323.0
399.82281093 333.333333333
400.28246882 307.5
400.74217808 334.0
401.20193867 320.5
401.66175054 324.666666667
402.12161368 353.0
402.58152803 334.666666667
403.04149356 359.0
403.50151023 484.666666667
403.96157802 886.0
404.42169687 1401.66666667
404.88186676 1019.5
405.34208764 471.0
405.80235949 373.0
406.26268226 343.0
406.72305591 356.5
407.18348042 399.0
407.64395574 404.0
408.10448183 394.0
408.56505866 337.0
409.0256862 335.666666667
409.4863644 354.5
409.94709324 336.0
410.40787266 348.5
410.86870264 355.333333333
411.32958314 326.0
411.79051412 355.666666667
412.25149554 357.5
412.71252738 334.333333333
413.17360958 379.5
413.63474212 343.0
414.09592496 338.0
414.55715806 353.0
415.01844138 353.0
415.4797749 393.5
415.94115856 348.333333333
416.40259233 348.5
416.86407619 365.333333333
417.32561008 331.5
417.78719398 380.333333333
418.24882784 367.0
418.71051164 365.666666667
419.17224533 381.0
419.63402887 360.666666667
420.09586223 366.0
420.55774538 378.666666667
421.01967827 334.0
421.48166087 380.333333333
421.94369315 381.0
422.40577506 369.333333333
422.86790657 414.0
423.33008764 369.0
423.79231823 385.0
424.25459832 402.0
424.71692786 351.0
425.17930681 394.333333333
425.64173514 398.0
426.10421281 374.0
426.56673978 414.0
427.02931602 386.666666667
427.4919415 396.5
427.95461617 413.666666667
428.41733999 402.5
428.88011294 412.333333333
429.34293497 405.5
429.80580604 399.0
430.26872613 443.0
430.73169519 405.666666667
431.19471319 420.5
431.65778008 421.333333333
432.12089584 406.5
432.58406043 445.333333333
433.0472738 461.5
433.51053593 462.666666667
433.97384677 531.5
434.4372063 579.0
434.90061446 1145.0
435.36407123 3186.33333333
435.82757657 3794.5
436.29113044 2597.33333333
436.75473281 561.5
437.21838363 482.333333333
437.68208288 493.5
438.14583051 452.333333333
438.60962648 475.0
439.07347077 468.0
439.53736333 418.5
440.00130413 458.666666667
440.46529314 453.0
440.9293303 442.333333333
441.39341559 491.0
441.85754898 464.666666667
442.32173041 451.5
442.78595986 454.333333333
443.2502373 426.0
443.71456267 459.0
444.17893595 455.5
444.64335711 457.333333333
445.10782609 522.0
445.57234287 469.0
446.03690741 453.5
446.50151967 485.333333333
446.96617962 439.0
447.43088721 473.666666667
447.89564242 462.0
448.3604452 459.333333333
448.82529553 508.0
449.29019335 463.333333333
449.75513864 483.0
450.22013135 485.0
450.68517146 447.5
451.15025892 484.666666667
451.6153937 477.5
452.08057576 475.0
452.54580506 503.5
453.01108157 464.666666667
453.47640525 493.0
453.94177607 483.333333333
454.40719398 458.5
454.87265895 497.333333333
455.33817095 497.0
455.80372993 453.0
456.26933586 500.666666667
456.7349887 494.0
457.20068842 470.0
457.66643498 503.5
458.13222835 478.333333333
458.59806847 484.5
459.06395533 501.666666667
459.52988888 472.0
459.99586908 510.333333333
460.4618959 491.5
460.92796931 489.0
461.39408926 520.5
461.86025571 486.333333333
462.32646864 510.0
462.792728 521.666666667
463.25903377 473.5
463.72538589 520.333333333
464.19178433 511.5
464.65822906 506.0
465.12472005 546.5
465.59125725 518.666666667
466.05784062 504.0
466.52447013 518.0
466.99114575 485.5
467.45786744 529.0
467.92463515 520.5
468.39144886 503.666666667
468.85830852 549.0
469.3252141 511.333333333
469.79216557 526.0
470.25916288 536.666666667
470.726206 528.0
471.19329489 537.0
471.66042952 555.5
472.12760985 540.333333333
472.59483583 544.0
473.06210745 532.666666667
473.52942465 530.0
473.9967874 544.0
474.46419567 519.5
474.93164941 564.666666667
475.3991486 548.0
475.86669319 530.333333333
476.33428315 541.666666667
476.80191844 530.0
477.26959902 529.666666667
477.73732486 574.0
478.20509592 547.333333333
478.67291216 546.0
479.14077355 550.0
479.60868006 513.0
480.07663163 549.666666667
480.54462824 539.0
481.01266985 543.333333333
481.48075642 584.5
481.94888792 544.0
482.4170643 555.5
482.88528554 555.666666667
483.3535516 527.0
483.82186243 559.333333333
484.29021801 547.5
484.75861829 537.333333333
485.22706324 584.0
485.69555282 543.666666667
486.16408699 547.0
486.63266573 560.333333333
487.10128898 520.5
487.56995672 562.333333333
488.03866891 539.5
488.50742551 537.666666667
488.97622648 574.5
489.44507179 540.333333333
489.91396139 546.333333333
490.38289527 588.0
490.85187337 541.666666667
491.32089566 557.0
491.7899621 564.0
492.25907266 526.5
492.7282273 542.333333333
493.19742598 536.0
493.66666867 519.666666667
494.13595533 583.5
494.60528591 536.333333333
495.0746604 532.0
495.54407874 552.0
496.01354091 511.0
496.48304686 554.0
496.95259656 550.0
497.42218997 525.333333333
497.89182706 548.0
498.36150779 530.0
498.83123211 533.5
499.301 551.333333333
499.77081142 496.5
500.24066633 541.0
500.71056469 557.666666667
501.18050648 512.5
501.65049164 540.333333333
502.12052014 532.5
502.59059195 534.333333333
503.06070704 561.5
503.53086535 519.333333333
504.00106686 543.0
504.47131154 541.666666667
504.94159933 511.0
505.41193021 547.333333333
505.88230414 528.0
506.35272109 523.333333333
506.82318101 558.0
507.29368386 532.0
507.76422962 527.5
508.23481825 546.666666667
508.7054497 510.5
509.17612395 538.0
509.64684095 519.0
510.11760067 531.333333333
510.58840307 555.0
511.05924812 535.5
511.53013577 529.333333333
512.001066 574.5
512.47203875 526.0
512.94305401 531.0
513.41411173 536.666666667
513.88521187 514.5
514.3563544 545.0
514.82753927 540.5
515.29876647 527.666666667
515.77003593 563.0
516.24134764 533.666666667
516.71270155 531.5
517.18409763 563.0
517.65553584 511.0
518.12701614 546.333333333
518.5985385 551.333333333
519.07010287 525.5
519.54170923 568.333333333
520.01335753 533.0
520.48504774 547.0
520.95677983 590.0
521.42855375 544.666666667
521.90036946 558.5
522.37222694 558.0
522.84412615 530.5
523.31606704 575.333333333
523.78804958 562.0
524.26007374 549.666666667
524.73213947 603.5
525.20424675 548.0
525.67639553 559.5
526.14858578 575.666666667
526.62081745 565.333333333
527.09309052 570.0
527.56540495 581.666666667
528.0377607 563.0
528.51015773 585.333333333
528.98259601 577.0
529.4550755 565.333333333
529.92759616 615.5
530.40015795 578.0
530.87276085 579.5
531.34540481 591.666666667
531.81808979 561.0
532.29081576 601.666666667
532.76358269 594.5
533.23639053 601.0
533.70923924 623.333333333
534.1821288 612.0
534.65505917 609.0
535.1280303 648.5
535.60104217 608.0
536.07409473 631.0
536.54718794 633.666666667
537.02032178 610.0
537.4934962 642.666666667
537.96671117 632.0
538.43996665 624.333333333
538.91326261 671.0
539.386599 648.0
539.85997579 647.666666667
540.33339294 680.5
540.80685042 660.333333333
541.28034819 677.0
541.75388622 686.0
542.22746446 668.5
542.70108287 704.333333333
543.17474144 709.5
543.6484401 721.0
544.12217884 755.0
544.59595761 751.0
545.06977637 818.0
545.5436351 1927.33333333
546.01753374 3749.5
546.49147227 2987.33333333
546.96545065 821.333333333
547.43946884 763.0
547.9135268 774.333333333
548.3876245 782.5
548.86176191 766.666666667
549.33593897 809.0
549.81015567 767.666666667
550.28441195 772.5
550.75870779 785.666666667
551.23304315 774.0
551.70741799 815.333333333
552.18183227 809.5
552.65628595 811.666666667
553.13077901 824.0
553.6053114 820.0
554.07988309 824.333333333
554.55449403 860.5
555.0291442 826.0
555.50383356 847.5
555.97856206 869.333333333
556.45332968 830.0
556.92813637 873.333333333
557.4029821 875.0
557.87786683 871.666666667
558.35279053 901.333333333
558.82775315 902.5
559.30275467 895.666666667
559.77779504 923.0
560.25287423 915.0
560.72799221 916.0
561.20314892 932.333333333
561.67834435 909.0
562.15357844 949.666666667
562.62885117 937.5
563.10416249 935.666666667
563.57951238 971.666666667
564.05490079 965.0
564.53032769 962.666666667
565.00579303 985.5
565.48129679 978.666666667
565.95683893 994.0
566.4324194 999.333333333
566.90803818 985.5
567.38369523 1013.33333333
567.8593905 1008.0
568.33512397 1003.66666667
568.81089559 1023.5
569.28670533 1002.33333333
569.76255316 1024.66666667
570.23843902 1040.5
570.7143629 1019.66666667
571.19032475 1036.0
571.66632453 1041.0
572.14236222 1007.0
572.61843776 1056.33333333
573.09455113 1039.5
573.57070228 1039.33333333
574.04689119 1065.5
574.52311781 1032.33333333
574.99938211 1042.66666667
575.47568405 1084.5
575.95202359 1057.66666667
576.4284007 1202.0
576.90481534 1801.33333333
577.38126747 1113.0
577.85775706 1081.0
578.33428407 1069.0
578.81084846 1648.33333333
579.2874502 1291.0
579.76408925 1059.0
580.24076557 1042.66666667
580.71747912 1075.5
581.19422988 1055.0
581.6710178 1032.5
582.14784284 1059.66666667
582.62470497 1016.0
583.10160416 1051.0
583.57854035 1039.5
584.05551353 1051.66666667
584.53252365 1037.66666667
585.00957067 1040.0
585.48665456 1004.0
585.96377529 1042.0
586.4409328 1005.0
586.91812708 1024.0
587.39535807 1044.0
587.87262575 1013.0
588.34993007 1049.33333333
588.82727101 1037.0
589.30464852 994.5
589.78206256 1024.66666667
590.25951311 1007.5
590.73700012 981.666666667
591.21452355 1007.0
591.69208338 970.333333333
592.16967956 1000.0
592.64731205 992.0
593.12498082 942.5
593.60268584 980.0
594.08042706 985.0
594.55820445 923.5
595.03601797 976.0
595.51386759 957.0
595.99175326 960.333333333
596.46967496 971.5
596.94763264 944.333333333
597.42562627 956.5
597.90365581 949.666666667
598.38172122 948.0
598.85982248 938.5
599.33795953 934.0
599.81613235 880.5
600.29434089 902.666666667
600.77258513 871.0
601.25086501 881.333333333
601.72918052 910.5
602.20753161 861.666666667
602.68591823 875.666666667
603.16434037 894.5
603.64279797 861.333333333
604.12129101 876.0
604.59981945 866.0
605.07838324 810.0
605.55698236 852.0
606.03561676 828.0
606.51428641 817.666666667
606.99299127 816.0
607.47173131 834.0
607.95050648 800.333333333
608.42931676 813.5
608.9081621 787.0
609.38704248 794.5
609.86595784 774.666666667
610.34490816 746.5
610.82389339 775.0
611.30291351 767.666666667
611.78196847 737.0
612.26105823 761.333333333
612.74018277 742.5
613.21934204 733.0
613.69853601 755.5
614.17776464 715.0
614.65702789 713.5
615.13632573 729.666666667
615.61565812 701.666666667
616.09502502 697.5
616.5744264 696.0
617.05386221 669.5
617.53333243 699.666666667
618.01283702 670.0
618.49237593 665.333333333
618.97194914 692.0
619.4515566 654.333333333
619.93119828 649.666666667
620.41087415 680.0
620.89058415 635.0
621.37032827 639.0
621.85010646 642.333333333
622.32991868 607.0
622.8097649 630.666666667
623.28964508 621.666666667
623.76955919 597.0
624.24950718 618.333333333
624.72948902 599.0
625.20950468 582.666666667
625.68955412 607.5
626.16963729 579.0
626.64975417 586.5
627.12990471 589.666666667
627.61008889 571.333333333
628.09030666 555.0
628.57055798 576.333333333
629.05084283 531.0
629.53116115 561.0
630.01151293 581.0
630.49189811 540.0
630.97231666 539.666666667
631.45276855 539.5
631.93325374 519.333333333
632.41377219 554.5
632.89432387 521.333333333
633.37490873 528.5
633.85552675 514.333333333
634.33617788 486.5
634.81686209 514.666666667
635.29757934 522.0
635.77832959 482.5
636.25911281 506.0
636.73992897 493.5
637.22077801 488.0
637.70165992 496.5
638.18257464 480.333333333
638.66352215 472.666666667
639.1445024 505.0
639.62551537 461.666666667
640.10656101 465.0
640.58763928 480.333333333
641.06875016 446.0
641.54989359 464.333333333
642.03106956 467.333333333
642.51227801 436.5
642.99351892 457.666666667
643.47479224 458.5
643.95609794 428.0
644.43743598 459.0
644.91880633 426.0
645.40020894 430.5
645.88164379 430.333333333
646.36311083 411.666666667
646.84461003 422.5
647.32614135 427.0
647.80770476 390.5
648.28930022 431.333333333
648.77092768 423.0
649.25258712 407.0
649.7342785 412.333333333
650.21600177 414.5
650.69775691 396.0
651.17954388 420.0
651.66136264 395.666666667
652.14321315 398.0
652.62509538 399.333333333
653.10700929 379.0
653.58895484 374.0
654.070932 393.333333333
654.55294072 374.0
655.03498098 397.333333333
655.51705274 371.0
655.99915595 361.0
656.48129059 372.333333333
656.96345661 366.0
657.44565398 367.333333333
657.92788266 393.5
658.41014262 363.666666667
658.89243382 368.0
659.37475621 371.666666667
659.85710978 360.0
660.33949447 354.0
660.82191025 377.0
661.30435708 325.0
661.78683493 372.333333333
662.26934377 340.0
662.75188354 345.333333333
663.23445423 355.333333333
663.71705578 346.5
664.19968817 335.0
664.68235136 361.0
665.1650453 337.333333333
665.64776997 334.5
666.13052532 341.666666667
666.61331133 339.0
667.09612794 337.0
667.57897514 339.666666667
668.06185287 310.0
668.5447611 336.666666667
669.0276998 323.5
669.51066893 330.333333333
669.99366845 336.333333333
670.47669833 330.5
670.95975852 322.0
671.442849 337.0
671.92596972 323.0
672.40912065 315.0
672.89230175 335.333333333
673.37551298 324.333333333
673.85875431 328.0
674.3420257 331.666666667
674.82532712 298.5
675.30865852 318.0
675.79201988 330.0
676.27541115 304.666666667
676.75883229 318.0
677.24228328 323.5
677.72576406 304.333333333
678.20927462 337.0
678.6928149 299.333333333
679.17638488 306.0
679.65998451 317.333333333
680.14361377 297.0
680.6272726 310.5
681.11096098 308.0
681.59467887 282.0
682.07842623 310.666666667
682.56220303 299.0
683.04600923 296.666666667
683.52984478 308.666666667
684.01370967 300.5
684.49760384 286.666666667
684.98152726 338.0
685.46547989 288.666666667
685.94946171 299.0
686.43347266 330.0
686.91751272 288.0
687.40158185 298.0
687.88568001 307.666666667
688.36980716 277.0
688.85396327 315.0
689.33814829 296.0
689.82236221 273.0
690.30660496 307.333333333
690.79087653 288.5
691.27517687 279.0
691.75950595 320.0
692.24386373 279.666666667
692.72825017 277.333333333
693.21266523 317.5
693.69710889 276.666666667
694.18158109 299.5
694.66608181 298.333333333
695.15061101 283.0
695.63516866 289.5
696.1197547 320.333333333
696.60436912 268.0
697.08901187 304.0
697.57368291 279.5
698.05838221 278.0
698.54310973 298.666666667
699.02786544 278.0
699.51264929 271.666666667
699.99746125 335.5
700.48230129 281.0
700.96716936 281.5
701.45206544 298.0
701.93698948 271.0
702.42194144 280.5
702.9069213 298.666666667
703.391929 264.5
703.87696453 290.666666667
704.36202783 289.333333333
704.84711888 260.0
705.33223763 290.0
705.81738405 284.5
706.30255811 281.666666667
706.78775976 314.0
707.27298897 263.0
707.7582457 272.666666667
708.24352991 299.0
708.72884158 266.333333333
709.21418065 275.5
709.6995471 292.666666667
710.18494089 268.666666667
710.67036198 274.0
711.15581034 288.333333333
711.64128592 241.0
712.12678869 289.333333333
712.61231862 279.0
713.09787566 260.666666667
713.58345979 299.666666667
714.06907095 277.5
714.55470913 261.333333333
715.04037427 303.0
715.52606635 275.666666667
716.01178533 260.666666667
716.49753116 298.0
716.98330382 264.333333333
717.46910326 269.0
717.95492946 279.333333333
718.44078236 238.5
718.92666194 281.0
719.41256816 280.666666667
719.89850098 246.0
720.38446037 272.666666667
720.87044629 287.5
721.3564587 274.0
721.84249756 281.666666667
722.32856284 266.0
722.8146545 252.0
723.30077251 307.0
723.78691682 267.0
724.27308741 283.0
724.75928423 270.333333333
725.24550724 263.0
725.73175642 274.5
726.21803172 270.666666667
726.70433311 241.0
727.19066055 288.333333333
727.677014 285.333333333
728.16339343 244.0
728.6497988 284.0
729.13623007 266.0
729.62268721 261.0
730.10917018 277.333333333
730.59567893 276.0
731.08221345 257.666666667
731.56877369 292.0
732.0553596 267.666666667
732.54197116 272.5
733.02860834 280.0
733.51527108 261.666666667
734.00195936 270.0
734.48867313 281.333333333
734.97541237 228.5
735.46217703 278.333333333
735.94896708 277.0
736.43578248 237.5
736.9226232 272.0
737.40948919 263.5
737.89638043 278.333333333
738.38329686 283.333333333
738.87023847 280.0
739.3572052 261.333333333
739.84419703 279.5
740.33121392 263.666666667
740.81825582 272.5
741.30532271 280.333333333
741.79241455 276.0
742.27953129 264.5
742.76667291 279.0
743.25383936 242.5
743.74103061 276.666666667
744.22824663 279.333333333
744.71548737 233.5
745.2027528 280.666666667
745.69004288 270.5
746.17735758 262.0
746.66469685 276.666666667
747.15206067 273.5
747.63944899 263.0
748.12686178 296.5
748.614299 267.333333333
749.10176061 273.0
749.58924659 307.0
750.07675688 282.333333333
750.56429146 271.5
751.05185028 308.666666667
751.53943332 249.0
752.02704053 275.0
752.51467187 271.0
753.00232732 234.0
753.49000683 279.666666667
753.97771036 264.5
754.46543789 256.0
754.95318936 275.0
755.44096476 263.5
755.92876403 261.333333333
756.41658715 314.5
756.90443407 251.333333333
757.39230476 252.666666667
757.88019918 291.5
758.3681173 269.0
758.85605908 279.0
759.34402448 273.0
759.83201346 255.666666667
760.32002599 263.5
760.80806203 273.666666667
761.29612155 240.0
761.78420451 281.0
762.27231086 278.333333333
762.76044058 262.5
763.24859363 369.333333333
763.73676997 297.0
764.22496956 263.333333333
764.71319237 278.666666667
765.20143836 264.5
765.68970749 257.333333333
766.17799973 291.0
766.66631504 255.333333333
767.15465338 255.0
767.64301472 299.5
768.13139902 251.0
768.61980624 269.5
769.10823635 279.333333333
769.5966893 241.0
770.08516507 279.333333333
770.57366361 264.666666667
771.06218489 232.0
771.55072888 274.666666667
772.03929553 292.5
772.5278848 268.0
773.01649667 282.666666667
773.50513109 270.0
773.99378804 252.333333333
774.48246746 283.5
774.97116932 260.333333333
775.4598936 253.0
775.94864024 288.5
776.43740922 259.666666667
776.9262005 263.0
777.41501403 281.666666667
777.90384979 253.666666667
778.39270774 269.5
778.88158784 273.333333333
779.37049004 237.0
779.85941433 272.0
780.34836066 275.666666667
780.83732898 225.0
781.32631928 270.0
781.8153315 266.0
782.30436562 260.333333333
782.79342159 274.0
783.28249938 262.5
783.77159895 256.333333333
784.26072027 286.0
784.74986329 255.0
785.23902799 261.0
785.72821432 299.0
786.21742225 247.0
786.70665174 272.0
787.19590276 270.666666667
787.68517526 253.0
788.17446922 256.5
788.66378459 282.0
789.15312133 232.5
789.64247942 274.0
790.13185881 273.666666667
790.62125947 238.5
791.11068135 277.333333333
791.60012443 258.5
792.08958867 255.333333333
792.57907402 264.666666667
793.06858046 262.0
793.55810795 259.333333333
794.04765644 297.0
794.53722591 276.333333333
795.02681631 264.666666667
795.51642762 288.5
796.00605978 256.0
796.49571277 265.0
796.98538655 273.666666667
797.47508108 252.333333333
797.96479632 254.5
798.45453224 267.333333333
798.94428881 235.5
799.43406597 271.666666667
799.92386371 287.333333333
800.41368198 254.5
800.90352074 296.666666667
801.39337996 279.5
801.8832596 255.333333333
802.37315962 267.666666667
802.86307999 269.5
803.35302067 244.666666667
803.84298163 279.0
804.33296282 259.666666667
804.82296421 260.666666667
805.31298576 287.5
805.80302744 249.333333333
806.29308921 256.666666667
806.78317103 277.5
807.27327287 258.333333333
807.76339468 268.0
808.25353644 260.333333333
808.74369811 256.0
809.23387964 268.0
809.724081 299.333333333
810.21430216 268.0
810.70454308 305.0
811.19480372 380.333333333
811.68508405 280.5
812.17538402 289.0
812.6657036 267.5
813.15604276 250.666666667
813.64640146 276.0
814.13677965 263.0
814.62717731 257.0
815.1175944 305.5
815.60803088 255.333333333
816.09848671 256.333333333
816.58896185 288.5
817.07945628 252.666666667
817.56996995 258.0
818.06050283 270.0
818.55105488 253.0
819.04162606 274.0
819.53221633 267.666666667
820.02282567 236.5
820.51345402 274.333333333
821.00410137 271.666666667
821.49476766 243.5
821.98545286 266.333333333
822.47615694 262.333333333
822.96687986 241.5
